1649885501.00
64.000000
-0.00
-0.00
-0.00
-0.00
-0.00
-0.00
-0.00
-0.00
-0.00
-0.00
0.00
0.01
0.01
-0.00
-0.03
-0.05
-0.05
0.00
0.13
0.36
0.66
1.01
1.37
1.72
2.06
2.40
2.79
3.24
3.80
4.42
5.06
5.66
6.20
6.68
7.15
7.68
8.31
9.14
10.09
11.04
11.88
12.56
13.14
13.76
14.65
15.96
17.91
20.32
22.90
25.38
27.58
29.57
31.68
34.32
37.81
42.54
48.15
54.10
59.83
64.97
69.58
74.14
79.34
85.71
93.76
103.00
112.62
121.73
129.77
136.75
143.30
150.75
157.77
166.64
177.95
191.79
206.97
220.57
228.25
225.36
208.53
176.87
132.76
80.05
23.07
-34.94
-92.44
-149.16
-205.23
-260.37
-313.74
-363.87
-409.83
-450.91
-486.50
-515.74
-537.23
-549.22
-549.96
-538.37
-514.21
-478.67
-433.88
-382.45
-327.02
-269.84
-212.63
-156.66
-102.95
-52.37
-5.90
35.58
71.43
101.35
125.50
144.38
158.69
169.15
176.37
180.75
182.57
182.07
179.51
175.23
169.65
163.18
156.15
148.81
141.30
133.69
126.02
118.33
110.69
103.16
95.80
88.68
81.83
75.25
68.95
62.95
57.25
51.86
46.78
42.03
37.59
33.45
29.61
26.07
22.81
19.83
17.11
14.67
12.48
10.54
8.83
7.35
6.07
4.97
4.05
3.27
2.62
2.09
1.65
1.30
1.01
0.79
0.61
0.47
0.37
0.28
0.22
0.18
0.14
0.12
0.11
0.11
0.11
0.13
0.15
0.17
0.21
0.24
0.28
0.32
0.37
0.41
0.46
0.51
0.56
0.61
0.66
0.72
0.77
0.83
0.91
1.01
1.13
1.25
1.36
1.42
1.44
1.41
1.40
1.42
1.54
1.75
2.04
2.36
2.66
2.91
3.12
3.34
3.63
4.05
4.61
5.26
5.93
6.51
6.97
7.30
7.62
8.07
8.76
9.73
10.87
11.97
12.82
13.27
13.42
13.50
13.85
14.74
16.15
17.74
18.90
18.97
17.51
14.52
10.43
5.90
1.58
-2.35
-6.11
-10.34
-15.67
-22.37
-30.05
-37.73
-44.21
-48.59
-50.54
-50.50
-49.45
-48.48
-48.59
-50.53
-54.68
-60.68
-66.82
-70.01
-66.44
-53.17
-29.72
1.00
33.41
61.30
80.29
89.35
90.65
88.04
84.86
82.87
82.16
82.03
81.87
81.64
81.56
81.58
81.32
80.08
77.85
75.62
75.14
78.10
85.16
95.40
106.48
115.56
119.78
117.73
109.71
97.31
82.75
68.21
55.41
45.51
39.22
36.15
35.82
37.58
40.57
43.64
45.27
43.53
36.09
25.41
12.65
-0.53
-12.13
-20.52
-24.98
-26.03
-25.16
-24.08
-23.78
-24.76
-26.19
-26.78
-25.82
-24.11
-24.00
-28.74
-41.39
-63.76
-96.21
-136.75
-181.09
-223.01
-255.26
-271.23
-267.00
-243.15
-205.17
-162.29
-124.12
-97.51
-84.72
-83.85
-91.07
-103.30
-119.94
-142.72
-174.29
-215.72
-264.69
-315.18
-358.67
-386.71
-393.60
-378.29
-344.44
-298.75
-248.23
-197.77
-149.24
-102.29
-55.98
-10.48
32.48
70.15
100.14
121.46
134.97
142.79
147.30
150.20
151.82
151.40
148.00
141.50
133.13
125.19
120.01
118.69
120.54
123.31
124.28
121.44
114.20
103.28
90.19
76.56
63.56
51.72
41.06
31.36
22.45
14.45
7.76
2.91
0.21
-0.52
-0.09
0.31
-0.48
-3.24
-8.07
-14.49
-21.71
-28.98
-35.85
-42.19
-48.18
-54.10
-60.26
-66.93
-74.34
-82.73
-92.20
-102.61
-113.39
-123.45
-131.34
-135.63
-135.36
-130.41
-121.48
-109.95
-97.35
-85.10
-74.18
-65.18
-58.33
-53.54
-50.45
-48.40
-46.53
-43.86
-39.52
-32.87
-23.68
-12.07
1.51
16.50
32.28
48.27
63.90
78.52
91.40
101.78
108.99
112.64
112.78
109.85
104.63
98.05
91.03
84.22
77.90
71.86
65.49
57.97
48.73
37.76
25.95
14.92
6.61
2.72
4.11
10.62
21.13
33.98
47.44
60.09
70.92
79.42
85.39
88.93
90.30
89.93
88.32
85.95
83.19
80.25
77.16
73.85
70.27
66.43
62.39
58.28
54.12
49.82
45.14
39.84
33.74
26.89
19.55
12.17
5.19
-1.14
-6.84
-12.21
-17.75
-23.98
-31.20
-39.23
-47.21
-53.65
-56.65
-54.51
-46.27
-32.18
-13.68
6.95
27.31
45.54
60.57
72.10
80.37
85.77
88.72
89.64
88.94
87.07
84.43
81.33
77.94
74.27
70.29
66.01
61.52
56.94
52.46
48.21
44.22
40.39
36.51
32.41
27.99
23.37
18.77
14.42
10.36
6.37
1.98
-3.38
-10.18
-18.46
-27.67
-36.68
-43.95
-48.05
-48.05
-43.89
-36.34
-26.77
-16.66
-7.29
0.58
6.61
10.77
13.29
14.47
14.73
14.49
14.04
13.48
12.69
11.45
9.54
6.76
2.99
-1.82
-7.66
-14.33
-21.52
-28.77
-35.74
-42.28
-48.50
-54.60
-60.68
-66.59
-71.96
-76.30
-79.19
-80.41
-79.94
-77.88
-74.35
-69.40
-62.85
-54.37
-43.53
-30.11
-14.32
3.01
20.58
36.96
50.91
61.74
69.29
73.84
75.87
75.88
74.37
71.75
68.40
64.59
60.58
56.54
52.58
48.75
44.99
41.23
37.41
33.70
30.47
28.13
26.96
26.84
27.25
27.49
26.94
25.38
22.91
19.86
16.49
12.81
8.76
4.37
0.04
-3.39
-4.83
-3.31
1.71
10.00
20.64
32.16
43.05
52.05
58.55
62.57
64.55
65.04
64.48
63.05
60.80
57.81
54.25
50.41
46.61
43.12
40.13
37.78
36.18
35.38
35.30
35.66
35.92
35.44
33.68
30.43
25.89
20.58
15.15
10.07
5.40
0.71
-4.75
-11.71
-20.47
-30.53
-40.61
-49.00
-54.10
-55.05
-52.03
-46.26
-39.53
-33.69
-30.07
-29.11
-30.28
-32.09
-32.48
-29.34
-21.07
-7.25
11.08
31.62
51.42
67.85
79.37
85.80
88.10
87.66
85.62
82.55
78.47
73.25
66.89
59.71
52.14
44.49
36.75
28.62
19.75
9.94
-0.68
-11.70
-22.58
-32.77
-41.81
-49.37
-55.20
-59.06
-60.79
-60.22
-57.36
-52.38
-45.80
-38.48
-31.50
-25.92
-22.48
-21.43
-22.38
-24.43
-26.40
-27.11
-25.63
-21.49
-14.80
-6.21
3.17
12.03
19.19
23.93
26.22
26.77
26.69
27.07
28.47
30.66
32.72
33.45
31.89
27.73
21.36
13.58
5.30
-2.77
-10.09
-16.19
-20.55
-22.66
-22.20
-19.28
-14.48
-8.68
-2.76
2.65
7.29
11.25
14.72
17.85
20.57
22.60
23.50
22.93
20.76
17.23
12.88
8.46
4.66
2.01
0.68
0.65
1.68
3.45
5.56
7.50
8.73
8.80
7.56
5.22
2.25
-0.87
-3.93
-7.15
-11.00
-15.89
-21.82
-28.19
-33.91
-37.73
-38.71
-36.50
-31.34
-24.00
-15.43
-6.63
1.40
7.74
11.47
11.88
8.58
1.76
-7.76
-18.73
-29.69
-39.31
-46.75
-51.71
-54.41
-55.48
-55.68
-55.72
-56.10
-57.03
-58.43
-60.03
-61.44
-62.31
-62.30
-61.19
-59.02
-56.11
-53.13
-50.96
-50.39
-51.79
-54.84
-58.60
-61.77
-63.10
-61.74
-57.41
-50.33
-41.13
-30.64
-19.76
-9.36
-0.13
7.49
13.45
18.03
21.73
25.10
28.55
32.29
36.26
40.28
44.14
47.65
50.72
53.33
55.55
57.57
59.73
62.51
66.39
71.68
78.31
85.82
93.42
100.30
105.86
109.84
112.21
112.95
111.85
108.57
102.83
94.75
85.09
75.08
66.16
59.40
55.25
53.40
53.11
53.74
55.09
57.42
61.19
66.58
73.22
80.24
86.63
91.67
95.09
96.96
97.42
96.44
93.82
89.36
83.11
75.31
66.26
56.09
44.64
31.65
17.03
1.04
-15.60
-31.97
-47.15
-60.43
-71.51
-80.53
-88.27
-96.13
-105.92
-119.20
-136.53
-156.91
-177.77
-195.76
-207.76
-211.92
-208.03
-197.37
-182.00
-164.10
-145.51
-127.61
-111.33
-97.27
-85.65
-76.30
-68.80
-62.64
-57.44
-53.06
-49.49
-46.72
-44.68
-43.13
-41.77
-40.32
-38.57
-36.42
-33.79
-30.55
-26.52
-21.55
-15.66
-9.07
-2.24
4.34
10.16
14.72
17.55
18.16
16.33
12.34
7.21
2.55
0.14
1.31
6.40
14.69
24.69
34.69
43.30
49.64
53.38
54.63
53.81
51.61
48.89
46.42
44.65
43.45
42.26
40.24
36.76
31.60
25.05
17.75
10.40
3.59
-2.37
-7.34
-11.36
-14.57
-17.17
-19.41
-21.49
-23.52
-25.54
-27.50
-29.42
-31.38
-33.56
-36.15
-39.25
-42.75
-46.38
-49.66
-52.06
-53.15
-52.64
-50.50
-46.92
-42.24
-36.88
-31.18
-25.43
-19.87
-14.71
-10.16
-6.36
-3.31
-0.91
1.02
2.60
3.79
4.33
3.89
2.19
-0.73
-4.47
-8.31
-11.47
-13.42
-14.05
-13.71
-13.03
-12.65
-12.94
-14.02
-15.77
-18.00
-20.55
-23.23
-25.78
-27.75
-28.64
-28.02
-25.77
-22.18
-17.83
-13.40
-9.52
-6.54
-4.63
-3.75
-3.84
-4.80
-6.51
-8.75
-11.26
-13.68
-15.72
-17.09
-17.64
-17.28
-16.03
-14.00
-11.41
-8.56
-5.74
-3.19
-1.02
0.80
2.36
3.73
4.83
5.41
5.26
4.36
3.04
2.02
2.21
4.40
8.94
15.61
23.66
32.14
40.08
46.75
51.65
54.52
55.33
54.38
52.35
50.22
49.10
49.82
52.69
57.37
63.01
68.53
72.90
75.43
75.72
73.70
69.52
63.43
55.72
46.65
36.44
25.35
13.67
1.86
-9.53
-19.93
-28.90
-36.21
-41.77
-45.57
-47.50
-47.37
-45.00
-40.35
-33.68
-25.64
-17.01
-8.57
-0.76
6.30
12.79
18.91
24.62
29.65
33.55
35.98
36.96
36.95
36.73
37.08
38.46
40.88
43.90
46.85
49.03
49.95
49.34
47.26
43.90
39.57
34.61
29.32
23.86
18.24
12.32
5.95
-0.76
-7.24
-12.42
-14.99
-13.93
-8.94
-0.68
9.39
19.47
28.01
34.10
37.51
38.55
37.69
35.40
32.01
27.75
22.79
17.23
11.21
4.81
-1.81
-8.44
-14.82
-20.72
-25.94
-30.43
-34.26
-37.57
-40.62
-43.71
-47.19
-51.36
-56.39
-62.25
-68.64
-75.10
-81.12
-86.25
-90.13
-92.38
-92.54
-90.04
-84.32
-75.10
-62.65
-47.83
-31.99
-16.51
-2.52
9.43
19.29
27.30
33.75
38.80
42.49
44.84
46.01
46.23
45.79
44.85
43.40
41.27
38.28
34.41
29.82
24.91
20.06
15.60
11.60
7.89
4.19
0.14
-4.44
-9.67
-15.53
-22.05
-29.22
-36.90
-44.65
-51.62
-56.63
-58.50
-56.36
-50.01
-40.06
-27.71
-14.50
-1.93
8.87
17.28
23.11
26.54
27.82
27.17
24.77
20.81
15.66
9.93
4.35
-0.44
-4.15
-6.90
-9.15
-11.40
-13.99
-16.96
-20.13
-23.23
-26.12
-28.79
-31.33
-33.94
-36.77
-40.00
-43.72
-47.94
-52.50
-56.95
-60.59
-62.51
-61.91
-58.31
-51.72
-42.66
-31.98
-20.60
-9.34
1.15
10.39
17.97
23.59
27.11
28.63
28.48
27.10
24.91
22.20
19.15
15.83
12.31
8.58
4.59
0.25
-4.52
-9.63
-14.78
-19.54
-23.42
-26.18
-27.89
-28.91
-29.82
-31.13
-33.24
-36.21
-39.76
-43.25
-45.73
-46.15
-43.74
-38.18
-29.81
-19.47
-8.24
2.91
13.32
22.71
31.05
38.35
44.55
49.48
52.94
54.72
54.69
52.86
49.41
44.62
38.87
32.50
25.74
18.76
11.71
4.80
-1.72
-7.68
-13.07
-18.17
-23.31
-28.85
-34.96
-41.65
-48.83
-56.29
-63.65
-70.21
-74.91
-76.51
-73.98
-66.88
-55.64
-41.43
-25.86
-10.41
3.85
16.36
26.96
35.57
42.12
46.40
48.24
47.70
45.20
41.54
37.70
34.57
32.69
32.09
32.32
32.61
32.08
29.98
25.81
19.41
11.00
1.02
-9.88
-21.14
-32.38
-43.49
-54.59
-65.76
-76.90
-87.51
-96.71
-103.32
-106.17
-104.39
-97.71
-86.63
-72.27
-56.11
-39.67
-24.15
-10.34
1.36
10.74
17.80
22.61
25.45
26.82
27.33
27.52
27.74
27.99
28.09
27.81
27.03
25.75
24.14
22.39
20.68
19.14
17.76
16.39
14.73
12.33
8.75
3.67
-2.91
-10.49
-18.09
-24.36
-27.89
-27.52
-22.73
-13.69
-1.29
13.12
28.06
42.17
54.41
64.05
70.69
74.21
74.80
72.94
69.36
64.85
60.04
55.33
50.87
46.62
42.53
38.58
34.86
31.46
28.48
25.87
23.49
21.02
17.98
13.89
8.30
0.92
-8.31
-19.16
-31.05
-42.96
-53.52
-61.13
-64.34
-62.25
-54.87
-43.18
-28.87
-13.80
0.48
13.01
23.45
31.70
37.73
41.36
42.43
41.02
37.54
32.78
27.67
22.96
18.97
15.50
12.04
8.06
3.26
-2.28
-8.26
-14.35
-20.42
-26.57
-33.00
-39.92
-47.39
-55.35
-63.59
-71.74
-79.14
-84.84
-87.63
-86.26
-79.83
-68.12
-51.77
-32.19
-11.30
8.86
26.47
40.28
49.62
54.45
55.22
52.72
47.93
41.92
35.77
30.46
26.60
24.35
23.27
22.58
21.46
19.46
16.75
14.01
12.10
11.59
12.50
14.10
15.28
14.79
11.68
5.70
-2.53
-11.59
-19.52
-24.35
-24.62
-19.78
-10.32
2.45
16.86
31.24
44.26
55.09
63.30
68.76
71.64
72.32
71.48
70.00
68.79
68.56
69.60
71.66
74.03
75.84
76.38
75.39
73.11
70.02
66.62
63.08
59.31
55.10
50.39
45.46
40.86
37.31
35.42
35.54
37.72
41.56
46.26
50.63
53.21
52.54
47.48
37.54
23.06
5.16
-14.54
-34.35
-52.76
-68.58
-81.03
-89.51
-93.64
-93.23
-88.46
-80.10
-69.56
-58.78
-49.84
-44.36
-42.98
-45.14
-49.32
-53.52
-56.09
-56.24
-54.44
-52.11
-51.04
-52.57
-56.84
-62.58
-67.37
-68.55
-64.16
-53.76
-38.55
-20.89
-3.47
11.54
22.97
30.59
34.81
36.23
35.46
33.07
29.69
26.07
22.82
20.13
17.45
13.36
5.97
-6.46
-24.74
-48.20
-74.72
-101.22
-124.68
-142.91
-155.04
-161.45
-163.26
-161.81
-158.17
-152.96
-146.20
-137.42
-125.71
-110.06
-89.85
-65.27
-37.70
-9.54
16.30
37.18
51.52
59.14
61.29
60.18
58.31
57.88
60.29
66.02
74.64
84.90
95.04
103.10
107.51
107.48
103.33
96.35
88.37
81.09
75.52
71.67
68.72
65.56
61.23
55.24
47.67
39.08
30.34
22.50
16.54
13.27
13.39
17.20
24.36
33.70
43.60
52.37
58.73
62.12
62.69
61.53
59.69
57.43
53.83
47.55
37.78
24.80
10.04
-4.55
-16.51
-24.14
-27.36
-27.76
-27.37
-27.57
-28.52
-29.38
-28.86
-24.63
-14.28
3.54
28.49
58.90
92.12
124.86
153.52
169.85
167.81
148.69
121.65
97.16
81.19
74.25
73.77
76.84
80.98
86.13
93.13
102.12
111.00
117.97
122.04
123.55
124.00
124.38
126.21
130.25
135.86
140.88
142.90
139.88
130.18
117.93
105.05
93.03
82.38
72.45
61.80
49.32
34.86
19.54
5.23
-7.14
-17.04
-24.93
-32.13
-40.27
-50.29
-61.88
-73.67
-83.72
-91.14
-95.81
-98.63
-101.24
-105.48
-113.00
-124.87
-141.08
-159.89
-177.78
-189.22
-188.17
-170.29
-135.24
-87.49
-35.28
12.19
48.07
69.75
79.25
81.31
80.92
81.26
83.10
85.43
86.65
85.37
80.71
72.06
58.64
39.74
15.45
-12.33
-39.60
-61.01
-71.69
-69.47
-56.11
-36.97
-18.92
-7.47
-4.42
-7.35
-10.94
-9.55
0.44
19.36
44.55
71.62
96.02
114.22
124.20
125.44
118.65
105.33
87.51
67.56
47.81
30.15
15.73
4.80
-3.23
-9.52
-15.27
-21.25
-27.49
-33.33
-37.84
-40.49
-41.65
-42.70
-45.67
-52.54
-64.48
-81.71
-103.49
-128.69
-156.30
-185.83
-217.50
-252.34
-292.20
-339.15
-394.28
-456.20
-519.89
-576.86
-617.28
-632.80
-619.34
-578.35
-516.16
-442.13
-366.10
-296.68
-239.93
-198.71
-172.35
-156.80
-145.16
-129.28
-101.93
-59.19
-2.26
62.20
123.40
168.99
188.13
174.33
127.11
52.35
-38.92
-133.02
-216.75
-280.32
-319.29
-335.00
-333.40
-322.47
-309.59
-299.47
-293.61
-291.05
-289.89
-288.46
-285.67
-280.71
-272.70
-260.72
-244.28
-223.77
-200.57
-176.56
-153.61
-132.78
-114.14
-97.02
-80.48
-63.90
-47.30
-31.34
-16.97
-4.97
4.47
11.77
17.80
23.53
29.59
36.09
42.72
48.95
54.36
58.90
62.93
67.03
71.76
77.40
83.86
90.80
97.80
104.61
111.31
118.22
125.78
134.35
143.98
154.52
165.60
176.90
188.23
199.66
211.48
224.28
238.82
255.81
275.55
297.45
319.84
340.27
356.27
366.24
370.09
369.20
365.74
361.67
357.99
354.51
350.23
343.95
334.89
322.84
308.10
291.27
273.04
254.09
234.99
216.11
197.50
178.95
160.01
140.33
120.01
99.83
81.40
66.76
57.82
55.67
60.14
69.78
82.32
95.37
107.10
116.59
123.74
128.84
132.22
134.05
134.32
133.07
130.56
127.17
123.24
118.79
113.31
105.89
95.53
81.64
64.38
44.87
24.87
6.29
-9.51
-22.07
-31.91
-40.27
-48.56
-57.98
-69.28
-82.72
-98.15
-114.94
-131.76
-146.55
-156.67
-159.54
-153.57
-138.83
-117.25
-92.06
-66.77
-44.12
-25.45
-10.76
0.71
9.78
16.80
21.65
23.99
23.72
21.27
17.55
13.77
11.00
9.74
9.82
10.43
10.52
9.21
6.11
1.39
-4.47
-11.05
-18.36
-26.80
-37.01
-49.46
-64.26
-81.15
-99.66
-119.20
-138.89
-157.39
-172.75
-182.77
-185.57
-180.36
-167.89
-150.25
-130.23
-110.48
-92.86
-78.25
-66.80
-58.25
-52.23
-48.40
-46.37
-45.83
-46.52
-48.30
-51.09
-54.77
-59.10
-63.73
-68.31
-72.65
-76.73
-80.77
-85.06
-89.93
-95.54
-101.79
-108.26
-114.31
-119.18
-122.34
-123.75
-124.02
-124.28
-125.66
-128.79
-133.34
-137.96
-140.63
-139.26
-132.30
-119.14
-100.22
-76.90
-51.07
-24.82
0.06
22.27
41.30
57.40
71.48
84.71
98.02
111.73
125.42
138.07
148.58
156.23
160.99
163.49
164.66
165.36
166.07
166.98
168.13
169.55
171.32
173.33
175.23
176.41
176.19
174.01
169.57
162.83
153.98
143.39
131.62
119.42
107.50
96.31
85.77
75.29
64.11
51.79
38.55
25.37
13.61
4.52
-1.16
-3.41
-2.77
-0.05
4.00
8.90
14.53
21.03
28.64
37.47
47.51
58.55
70.40
82.92
96.13
110.13
124.89
140.21
155.76
171.20
186.43
201.64
217.24
233.65
251.06
269.18
287.30
304.34
319.16
330.73
338.20
340.85
338.02
329.17
314.01
292.84
266.75
237.53
207.37
178.16
151.08
126.28
103.00
79.99
55.98
29.95
1.31
-30.13
-64.01
-99.25
-134.05
-166.09
-193.08
-213.53
-227.25
-235.43
-240.16
-243.50
-246.82
-250.41
-253.75
-256.24
-257.83
-259.24
-261.51
-265.15
-269.34
-271.89
-269.91
-261.08
-244.82
-222.70
-197.73
-173.03
-150.50
-130.40
-111.86
-94.06
-77.20
-62.71
-52.42
-47.40
-47.11
-49.44
-51.57
-51.33
-48.18
-43.26
-38.57
-35.59
-34.38
-33.35
-30.01
-22.23
-9.09
8.67
28.88
48.61
64.62
73.62
72.35
58.12
30.04
-9.63
-54.71
-96.05
-123.94
-131.33
-115.94
-80.43
-30.44
28.29
92.03
159.09
228.11
295.91
356.67
403.30
430.18
435.86
423.78
400.74
373.95
348.40
325.74
304.84
283.79
261.63
239.02
217.74
199.43
184.65
172.58
161.61
150.27
138.09
125.70
114.51
105.85
100.34
97.59
96.35
95.13
92.75
88.81
83.66
78.11
72.94
68.52
64.64
60.71
56.08
50.28
43.31
35.54
27.55
19.84
12.76
6.38
0.63
-4.56
-9.20
-13.16
-16.23
-18.19
-18.91
-18.38
-16.71
-14.10
-10.81
-7.11
-3.29
0.39
3.69
6.37
8.24
9.13
8.90
7.38
4.47
0.06
-5.88
-13.25
-21.81
-31.21
-41.00
-50.75
-60.14
-68.94
-77.13
-84.69
-91.62
-97.81
-103.03
-107.07
-109.82
-111.44
-112.38
-113.32
-114.96
-117.76
-121.83
-126.88
-132.42
-138.06
-143.75
-149.89
-157.19
-166.37
-177.81
-191.28
-206.09
-221.26
-235.98
-249.89
-263.18
-276.49
-290.74
-306.95
-326.02
-349.35
-376.77
-405.58
-430.92
-447.39
-450.70
-438.99
-413.15
-376.49
-334.32
-291.05
-248.79
-207.72
-167.69
-129.38
-94.66
-65.79
-44.50
-33.67
-33.22
-39.54
-47.14
-51.76
-51.75
-47.71
-41.24
-33.98
-34.10
-46.12
-68.04
-93.74
-118.37
-140.19
-159.06
-174.86
-187.17
-209.98
-251.09
-305.58
-359.83
-402.65
-429.92
-442.70
-444.37
-439.21
-454.28
-505.39
-586.34
-675.82
-755.65
-818.44
-864.11
-895.26
-914.75
-954.92
-1034.27
-1144.18
-1258.20
-1355.51
-1430.60
-1488.28
-1536.63
-1394.85
-997.27
-431.54
134.09
586.42
901.05
1100.91
1219.59
1286.32
1322.88
1314.17
1253.01
1154.73
1049.79
961.93
899.74
861.77
842.91
837.66
818.22
768.27
693.39
614.29
548.64
503.58
478.57
469.92
473.04
468.19
444.63
405.29
362.73
327.78
304.38
291.56
286.26
285.19
278.54
260.47
232.19
199.66
168.24
140.54
117.42
99.21
85.86
74.30
62.36
50.26
39.99
33.11
29.35
26.46
20.86
8.74
-12.78
-46.35
-91.48
-145.76
-205.90
-268.26
-328.84
-382.74
-424.30
-448.18
-451.21
-433.50
-399.10
-354.71
-307.53
-263.36
-225.50
-194.87
-170.60
-150.95
-133.80
-117.48
-100.99
-84.21
-67.68
-52.28
-38.89
-28.15
-20.38
-15.50
-13.35
-13.48
-15.11
-17.09
-18.17
-17.39
-14.40
-9.43
-3.24
3.25
9.23
14.24
18.12
20.88
22.46
22.65
20.98
17.02
10.42
1.19
-10.23
-23.07
-36.35
-49.13
-60.69
-70.63
-78.84
-85.32
-89.99
-92.56
-92.44
-88.91
-81.28
-69.20
-52.80
-32.71
-9.88
14.67
40.15
66.08
92.23
118.29
143.65
167.15
187.19
202.13
210.82
213.11
209.98
203.48
196.07
190.04
186.88
187.30
191.24
198.38
208.54
221.90
239.16
261.66
291.48
330.79
380.56
438.72
498.95
551.15
584.10
589.31
564.27
513.64
447.38
377.07
312.38
259.13
219.33
192.31
175.81
166.41
159.79
151.52
138.58
120.81
101.37
85.33
77.14
78.37
86.63
96.51
101.59
96.67
79.00
48.57
7.66
-39.87
-89.44
-136.54
-177.40
-209.70
-232.62
-246.70
-253.54
-255.38
-254.87
-254.64
-256.69
-261.57
-268.07
-273.52
-274.86
-270.06
-259.00
-243.39
-225.80
-208.42
-192.34
-177.57
-163.85
-151.19
-140.16
-131.59
-125.97
-123.05
-121.79
-120.42
-116.77
-108.33
-92.48
-66.73
-29.25
20.16
79.15
142.19
201.06
246.65
271.49
272.40
251.81
217.22
178.87
146.54
126.78
121.40
127.79
140.59
153.73
162.30
163.53
156.69
142.60
122.79
98.85
71.96
42.82
11.88
-20.23
-52.15
-81.63
-105.88
-122.57
-130.99
-132.77
-131.81
-133.05
-140.68
-156.29
-178.06
-201.24
-219.74
-228.19
-223.52
-205.57
-176.53
-139.75
-98.37
-54.53
-9.19
37.03
83.08
127.13
166.88
200.50
227.58
249.42
268.31
286.45
304.77
322.41
337.19
346.44
348.03
340.90
324.85
300.10
267.17
227.30
183.21
139.22
100.32
70.33
49.88
35.65
21.22
-0.82
-36.39
-88.13
-154.56
-230.34
-307.13
-375.14
-424.98
-449.80
-447.16
-420.07
-376.41
-326.68
-280.75
-245.11
-221.65
-208.32
-200.90
-195.26
-188.62
-179.79
-168.53
-154.77
-138.34
-119.15
-97.81
-75.82
-55.22
-37.57
-23.17
-10.90
1.16
14.47
29.32
44.52
57.97
67.62
72.35
72.49
69.89
67.47
68.45
75.43
89.70
110.96
137.56
167.03
196.83
224.75
249.01
268.08
280.50
284.99
280.76
268.08
248.61
225.20
201.26
179.82
162.67
150.07
140.90
133.40
125.88
117.20
106.68
93.89
78.22
58.87
35.08
6.38
-27.48
-66.78
-111.97
-163.10
-218.54
-273.94
-322.12
-354.74
-365.06
-350.54
-313.83
-261.66
-202.26
-142.80
-88.11
-40.78
-2.26
26.47
44.99
54.27
57.18
58.25
62.46
73.41
91.98
115.71
139.13
155.42
158.56
145.70
118.67
84.12
51.83
32.00
31.99
54.08
94.63
145.07
194.08
230.46
246.00
237.69
208.64
167.47
125.94
95.54
83.90
92.49
116.43
146.36
171.73
183.94
178.30
154.48
115.67
67.23
15.56
-32.54
-70.66
-93.69
-99.04
-87.79
-64.78
-37.45
-13.70
0.58
3.15
-4.38
-17.89
-32.79
-45.88
-56.23
-64.96
-74.18
-85.68
-100.07
-116.42
-132.60
-145.87
-153.71
-154.43
-147.75
-134.74
-117.52
-98.54
-79.82
-62.57
-47.36
-34.68
-25.21
-19.54
-17.51
-17.76
-18.32
-18.10
-18.42
-23.28
-37.78
-65.13
-103.89
-147.45
-185.87
-209.50
-212.41
-193.59
-155.68
-102.32
-36.24
40.60
125.15
211.28
289.84
350.88
387.30
397.82
387.33
364.47
337.81
312.56
289.62
266.97
242.10
214.03
183.70
152.84
122.55
92.46
60.90
25.91
-13.71
-57.71
-104.03
-149.39
-190.40
-224.75
-252.45
-276.23
-300.90
-331.51
-371.32
-420.28
-475.02
-530.06
-579.70
-619.53
-647.03
-661.22
-662.17
-650.56
-627.89
-596.67
-560.42
-523.08
-488.05
-457.39
-431.41
-409.00
-388.28
-367.36
-344.92
-320.44
-294.18
-266.95
-239.67
-212.96
-186.94
-161.21
-135.09
-107.94
-79.50
-50.05
-20.38
8.46
35.37
59.61
80.82
99.14
115.10
129.43
142.82
155.59
167.38
177.11
183.21
184.12
178.82
167.34
150.88
131.65
112.50
96.42
85.91
82.68
87.30
99.32
117.76
141.61
169.98
201.77
235.05
266.74
292.98
310.48
318.01
317.26
312.42
308.64
310.11
318.62
333.24
351.09
368.39
381.57
387.85
385.65
374.75
356.45
333.45
309.24
287.03
268.79
254.71
243.32
232.44
220.55
207.87
196.68
190.71
193.75
207.94
232.55
263.77
295.68
322.04
338.33
342.87
336.85
323.26
305.38
285.65
265.34
245.08
225.51
207.62
192.47
180.42
170.62
161.06
149.24
133.06
111.54
85.15
55.70
26.13
0.03
-19.03
-28.42
-27.42
-17.82
-3.64
10.04
18.75
20.05
13.89
2.04
-13.20
-30.18
-48.26
-67.53
-88.00
-109.07
-129.62
-148.67
-166.14
-183.21
-201.88
-223.70
-248.59
-274.25
-296.69
-311.68
-316.44
-310.48
-295.47
-274.44
-251.02
-228.95
-211.73
-202.05
-200.95
-207.12
-217.04
-226.17
-230.90
-230.01
-225.08
-219.44
-216.67
-219.10
-226.91
-238.02
-248.12
-251.44
-241.88
-214.99
-169.94
-110.88
-46.37
13.16
58.85
86.60
98.25
100.47
101.65
108.46
123.20
143.29
162.80
175.30
176.79
167.14
149.70
129.30
110.40
95.82
86.95
84.34
87.85
96.26
106.46
113.69
113.06
101.81
81.02
55.43
31.57
14.80
7.19
6.92
9.70
10.60
5.67
-7.51
-30.20
-63.06
-106.60
-160.78
-224.24
-293.22
-361.29
-419.77
-459.76
-474.80
-463.44
-430.54
-385.94
-341.30
-305.92
-283.75
-272.59
-265.86
-255.84
-236.64
-205.80
-164.10
-114.44
-60.55
-6.48
43.39
84.33
111.71
122.24
115.26
93.31
61.66
26.81
-5.32
-30.78
-48.30
-59.04
-65.69
-71.29
-77.97
-86.07
-93.98
-98.83
-97.71
-88.95
-72.71
-50.68
-25.12
2.08
29.89
57.96
86.20
114.59
143.19
172.22
202.08
232.81
263.68
292.97
318.32
337.37
348.30
350.07
342.22
324.69
297.90
263.00
222.19
178.51
135.27
95.26
60.06
29.93
3.94
-19.51
-42.19
-65.39
-89.41
-112.93
-132.98
-145.28
-145.37
-130.15
-99.14
-54.98
-3.01
50.14
98.15
136.34
162.27
175.52
176.96
168.10
150.57
125.88
95.36
60.02
20.55
-22.50
-68.12
-114.14
-156.91
-191.68
-213.79
-220.01
-209.38
-183.36
-145.09
-98.53
-48.03
2.13
47.90
86.15
115.21
135.25
147.74
154.41
156.12
152.46
142.37
125.22
101.59
73.10
41.66
8.39
-26.73
-64.59
-106.19
-151.84
-200.79
-251.39
-301.37
-348.34
-389.88
-423.70
-447.46
-459.08
-456.94
-440.43
-410.17
-367.89
-316.21
-258.26
-197.72
-138.79
-86.22
-44.80
-18.27
-8.27
-13.61
-30.49
-53.43
-76.65
-95.30
-106.15
-107.93
-101.37
-88.81
-73.39
-57.92
-43.65
-29.93
-14.74
3.90
26.50
51.80
77.62
102.65
127.42
154.48
186.82
226.08
270.83
316.43
356.05
382.68
391.24
379.67
349.11
303.44
248.64
192.03
141.86
106.15
90.80
97.65
123.53
161.33
202.65
240.65
271.61
294.45
308.71
312.83
303.97
279.51
239.24
186.76
129.04
74.53
30.68
1.79
-11.79
-13.02
-6.78
2.01
9.93
15.83
20.61
26.11
33.34
41.48
47.86
48.97
42.26
27.66
7.86
-12.81
-30.53
-44.03
-55.49
-69.61
-91.14
-122.10
-160.28
-199.94
-234.22
-258.10
-270.06
-271.94
-267.35
-260.11
-253.31
-249.23
-249.54
-254.82
-263.77
-272.63
-275.65
-267.05
-243.81
-207.84
-166.18
-128.97
-106.07
-103.96
-124.29
-164.26
-218.11
-278.64
-338.25
-389.50
-426.00
-443.60
-441.55
-423.02
-394.16
-362.12
-332.75
-309.07
-291.18
-277.28
-265.05
-252.70
-239.38
-225.02
-209.94
-194.64
-179.50
-164.82
-150.73
-137.18
-123.98
-110.90
-97.72
-84.36
-70.86
-57.41
-44.26
-31.63
-19.65
-8.25
2.72
13.57
24.54
35.81
47.34
59.00
70.52
81.66
92.28
102.35
111.95
121.23
130.30
139.21
147.97
156.56
165.01
173.46
182.18
191.54
201.93
213.75
227.34
242.91
260.50
280.00
301.11
323.50
346.94
371.53
397.74
426.16
457.04
489.83
522.99
554.30
581.52
603.01
617.92
625.95
626.91
620.55
606.62
585.32
557.60
525.06
489.49
452.29
414.23
375.52
336.33
297.02
258.06
219.54
180.84
140.53
97.13
50.19
1.35
-45.26
-83.99
-109.56
-119.27
-114.32
-99.64
-82.09
-68.16
-62.13
-65.15
-75.61
-90.09
-104.49
-114.97
-118.70
-114.62
-103.99
-90.51
-79.64
-77.09
-86.75
-109.28
-141.77
-178.58
-213.37
-241.04
-259.17
-268.23
-270.67
-269.34
-265.98
-260.59
-251.91
-238.44
-219.46
-195.42
-167.49
-136.85
-104.10
-69.32
-32.61
5.31
42.87
78.00
108.68
133.55
152.13
164.78
172.49
176.73
179.39
182.50
187.81
196.02
206.24
216.12
222.55
222.80
215.62
201.61
182.82
161.64
139.73
117.41
93.77
67.30
36.59
0.91
-39.45
-83.06
-127.19
-168.07
-201.33
-222.93
-230.43
-223.51
-204.18
-176.13
-143.83
-111.36
-81.49
-55.35
-32.53
-11.75
8.79
30.79
55.37
82.56
111.17
138.95
163.10
181.01
190.49
190.77
182.69
168.32
150.19
130.41
110.33
90.17
69.37
46.00
18.67
-12.64
-46.42
-80.29
-111.89
-139.24
-161.77
-179.94
-196.99
-215.33
-235.06
-253.89
-268.79
-277.66
-279.37
-274.66
-264.69
-254.07
-246.36
-243.25
-245.05
-252.24
-265.78
-285.28
-310.05
-337.99
-371.09
-410.38
-454.14
-497.59
-534.88
-561.41
-574.12
-574.53
-539.24
-461.50
-354.02
-242.08
-146.32
-74.09
-28.82
0.05
18.98
31.43
35.28
29.97
18.14
4.62
-6.14
-12.14
-12.71
-9.81
-5.16
-3.00
-5.56
-12.07
-19.45
-24.63
-26.24
-23.80
-18.68
-11.97
-6.22
-2.70
-0.91
0.94
4.42
9.94
17.38
25.59
33.84
40.97
46.55
50.97
55.00
59.05
62.84
65.95
67.80
68.48
68.38
68.31
69.18
71.52
75.25
79.70
84.18
88.29
92.36
97.33
104.52
115.24
130.51
150.67
175.05
201.60
226.99
247.12
258.39
258.96
249.74
234.28
217.62
204.66
198.55
200.04
207.82
219.46
232.38
244.36
253.52
258.09
256.49
247.70
231.86
210.59
186.74
163.54
143.38
126.84
112.59
98.11
81.27
61.83
42.08
26.26
18.85
22.41
36.04
55.12
72.44
80.08
71.50
43.31
-3.65
-63.94
-128.19
-185.01
-223.81
-237.92
-226.61
-195.20
-152.88
-109.45
-72.21
-44.56
-26.41
-15.79
-10.43
-8.45
-8.35
-8.72
-8.15
-5.58
-0.65
6.00
12.90
18.08
19.66
16.44
8.20
-4.38
-20.10
-37.81
-56.68
-76.03
-94.74
-110.85
-121.46
-123.53
-115.00
-95.92
-68.69
-37.43
-6.46
21.05
44.04
63.72
82.95
105.32
133.77
169.56
211.60
256.53
299.64
336.12
362.23
376.00
377.23
367.05
347.38
320.40
288.29
253.08
216.52
179.85
143.70
108.12
72.93
38.13
4.29
-27.49
-56.07
-80.78
-101.89
-120.38
-137.41
-153.52
-168.12
-179.59
-186.02
-186.10
-179.73
-168.02
-152.82
-136.05
-119.26
-103.56
-89.81
-78.79
-71.19
-67.32
-66.86
-68.81
-71.94
-75.39
-79.22
-84.26
-91.44
-100.78
-110.73
-118.33
-120.26
-114.28
-100.20
-80.07
-57.29
-35.45
-17.31
-4.52
2.38
3.71
0.76
-4.10
-7.49
-5.77
3.76
21.74
46.28
73.56
99.10
119.18
131.76
136.55
134.49
126.92
115.05
99.84
82.15
63.20
44.79
29.31
19.34
16.87
22.54
35.14
51.78
68.68
82.33
90.42
92.19
88.21
79.60
67.50
52.68
35.63
16.86
-2.92
-22.71
-41.42
-57.93
-71.20
-80.35
-84.82
-84.73
-81.16
-76.20
-72.60
-72.97
-78.84
-90.00
-104.32
-118.38
-128.49
-131.96
-127.92
-117.51
-103.41
-88.83
-76.56
-68.19
-63.85
-62.44
-62.06
-60.74
-57.01
-50.23
-40.59
-28.77
-15.30
-0.10
17.62
38.93
64.34
92.99
122.48
149.43
170.53
183.62
188.14
184.90
175.45
161.58
145.10
128.10
112.97
102.19
97.58
99.49
106.47
115.56
123.27
126.68
124.24
116.03
103.33
87.93
71.36
54.37
36.83
18.18
-1.85
-22.47
-41.68
-56.76
-65.37
-66.76
-62.31
-55.30
-49.69
-48.75
-54.01
-64.91
-79.30
-94.29
-107.11
-115.74
-119.18
-117.47
-111.46
-102.51
-92.16
-81.84
-72.71
-65.54
-60.57
-57.40
-55.17
-52.90
-50.16
-47.38
-45.75
-46.41
-49.42
-53.16
-54.67
-50.90
-40.18
-23.12
-2.38
18.44
36.20
49.11
56.96
60.62
61.52
61.24
61.39
63.35
68.11
75.88
85.98
97.09
107.57
116.05
121.57
123.62
121.94
116.40
106.93
93.55
76.40
55.89
32.83
8.57
-14.97
-35.76
-52.04
-62.89
-68.39
-69.53
-67.84
-65.03
-62.85
-62.85
-66.15
-73.00
-82.40
-92.11
-99.28
-101.51
-97.88
-89.37
-78.50
-68.28
-61.18
-58.57
-60.67
-67.07
-77.14
-90.15
-105.19
-120.87
-135.44
-147.17
-154.94
-158.58
-158.71
-156.09
-150.78
-141.66
-126.79
-104.45
-74.24
-37.78
1.67
40.34
75.22
105.01
129.99
151.32
170.16
187.04
201.86
214.23
223.91
230.94
235.56
237.94
237.86
234.70
227.49
215.27
197.55
174.70
148.02
119.33
90.39
62.23
34.97
8.19
-18.34
-44.16
-68.14
-89.00
-105.98
-119.01
-128.40
-134.13
-135.24
-129.94
-116.57
-94.86
-66.84
-36.76
-9.89
9.16
17.94
16.72
7.99
-4.82
-18.64
-31.78
-44.29
-57.62
-74.03
-95.75
-123.97
-157.91
-194.25
-227.35
-250.75
-259.29
-251.18
-228.67
-197.11
-162.70
-130.12
-101.13
-74.67
-48.09
-18.73
14.94
52.96
94.04
136.02
176.27
212.04
240.91
261.14
272.13
274.37
269.38
259.35
246.76
233.96
222.75
214.00
207.35
201.25
193.34
181.19
163.06
138.43
108.19
74.34
39.39
5.63
-25.39
-53.03
-77.22
-97.99
-115.01
-127.59
-135.04
-137.31
-135.35
-130.97
-126.27
-122.80
-121.01
-120.14
-118.76
-115.51
-109.76
-102.04
-93.93
-87.65
-85.52
-89.38
-100.10
-117.26
-139.00
-162.18
-182.93
-197.55
-203.54
-200.41
-189.90
-175.37
-160.55
-148.28
-139.45
-132.91
-126.08
-115.95
-100.16
-77.59
-48.58
-14.68
21.66
57.58
90.23
117.35
137.69
151.29
159.37
163.86
166.71
169.18
171.48
172.84
171.95
167.71
159.64
148.06
133.70
117.34
99.43
80.09
59.35
37.49
15.03
-7.45
-29.42
-50.44
-69.77
-86.11
-97.47
-101.78
-97.84
-86.19
-69.40
-51.31
-35.80
-25.37
-20.52
-19.99
-21.86
-24.74
-28.58
-34.75
-45.25
-61.86
-85.20
-114.34
-146.94
-179.70
-209.02
-231.54
-244.73
-247.22
-239.05
-221.72
-197.76
-170.18
-141.57
-113.57
-86.54
-59.86
-32.50
-3.68
26.73
58.10
89.24
118.70
145.05
167.27
184.84
198.01
207.69
215.16
221.53
227.18
231.43
232.69
229.05
218.99
202.03
178.94
151.35
121.22
90.18
59.24
28.89
-0.44
-28.15
-53.42
-75.52
-94.15
-109.45
-121.52
-129.89
-133.23
-129.64
-117.72
-97.70
-72.20
-45.72
-22.93
-6.80
2.61
7.72
11.75
16.63
21.94
25.46
24.73
18.74
8.54
-3.56
-15.42
-26.29
-36.80
-47.92
-59.62
-70.50
-78.47
-82.32
-82.84
-82.79
-85.65
-93.92
-107.65
-124.06
-138.43
-145.73
-142.28
-126.85
-100.83
-67.55
-31.21
4.26
35.96
62.32
82.89
98.06
108.65
115.76
120.65
124.80
129.66
136.21
144.50
153.35
160.62
163.80
160.89
151.04
134.65
113.06
87.92
60.65
32.22
3.26
-25.86
-54.84
-83.35
-110.84
-136.15
-157.14
-170.86
-174.37
-165.95
-146.27
-118.53
-87.56
-58.21
-33.77
-15.38
-2.57
5.71
10.09
10.43
6.24
-2.71
-16.00
-32.57
-51.01
-69.97
-88.31
-105.13
-119.71
-131.62
-140.71
-147.19
-151.29
-152.98
-151.69
-146.34
-135.70
-119.01
-96.36
-68.88
-38.29
-6.40
25.42
56.30
85.71
113.09
137.73
158.84
175.93
189.03
198.71
205.83
211.09
214.84
216.99
217.22
215.09
210.07
201.56
188.91
171.64
149.64
123.35
93.68
61.70
28.43
-5.16
-38.04
-68.79
-95.54
-116.17
-128.86
-132.78
-128.35
-117.16
-101.51
-83.76
-66.00
-49.89
-36.73
-27.43
-22.63
-22.63
-27.42
-36.73
-50.03
-66.33
-84.10
-101.20
-115.14
-123.74
-125.86
-121.94
-113.81
-103.77
-93.40
-82.84
-70.81
-55.57
-36.32
-14.15
8.00
26.29
37.53
40.51
36.57
29.20
22.92
21.82
28.38
42.86
63.47
87.05
110.14
129.82
144.08
151.73
152.11
144.91
130.32
109.30
83.66
55.63
27.19
-0.44
-26.78
-51.50
-73.81
-92.11
-104.48
-109.72
-108.32
-102.74
-96.61
-93.34
-94.79
-100.62
-108.78
-116.58
-121.92
-123.86
-122.61
-118.79
-112.76
-104.14
-92.17
-76.27
-56.81
-35.50
-15.18
0.86
9.71
9.64
0.65
-15.37
-34.94
-53.85
-68.23
-75.66
-75.75
-70.05
-61.20
-51.77
-43.40
-36.61
-31.37
-27.95
-27.35
-30.77
-38.31
-47.76
-54.30
-51.56
-33.82
1.91
54.61
119.62
190.20
259.63
322.72
376.32
418.87
449.44
467.23
471.47
462.03
439.86
407.13
366.83
322.06
275.31
228.29
182.13
138.06
97.69
62.92
35.31
15.42
2.60
-4.41
-6.59
-3.80
5.36
22.83
49.92
86.02
127.89
170.01
205.82
229.41
237.25
228.93
207.03
175.86
139.90
102.30
64.37
25.92
-13.74
-54.64
-95.58
-134.17
-167.44
-192.72
-208.25
-213.61
-209.82
-199.05
-184.17
-168.00
-152.75
-139.44
-127.91
-117.04
-105.18
-90.62
-71.72
-47.25
-16.59
19.70
59.59
99.61
135.57
163.95
183.03
193.50
198.01
199.92
202.06
205.88
211.50
218.28
225.56
232.93
240.11
246.59
251.46
253.51
251.63
245.35
235.02
221.75
207.00
192.08
177.82
164.43
151.69
139.25
126.86
114.42
101.98
89.54
77.02
64.25
51.18
37.94
24.84
12.32
0.73
-9.75
-19.28
-28.14
-36.70
-45.15
-53.50
-61.57
-69.15
-76.19
-82.85
-89.55
-96.74
-104.79
-113.75
-123.47
-133.55
-143.66
-153.61
-163.45
-173.45
-184.14
-196.16
-210.15
-226.44
-244.66
-263.52
-280.92
-294.56
-302.74
-305.07
-302.58
-297.28
-291.19
-285.37
-279.41
-271.50
-259.08
-239.69
-211.85
-175.56
-132.52
-85.86
-39.55
2.34
36.51
60.94
75.22
80.44
78.87
73.42
66.92
61.28
56.90
52.37
45.02
32.10
12.26
-13.40
-41.43
-67.22
-86.85
-98.41
-102.44
-101.16
-97.34
-93.39
-91.11
-92.04
-97.61
-109.06
-126.91
-150.60
-178.67
-209.59
-242.61
-278.22
-317.63
-361.78
-410.12
-460.06
-507.18
-546.18
-572.23
-582.15
-575.23
-553.39
-520.61
-481.83
-441.63
-403.18
-367.82
-335.31
-304.69
-275.01
-245.93
-217.55
-190.04
-163.24
-136.50
-108.94
-79.83
-48.76
-15.58
19.87
57.61
97.03
136.26
172.11
200.79
219.42
227.43
226.96
222.04
216.72
213.45
212.52
212.64
212.41
211.34
210.06
209.54
210.10
210.91
210.30
206.71
199.55
189.45
177.98
166.84
157.03
148.40
139.90
130.18
118.31
104.27
88.83
73.17
58.27
44.52
31.78
19.84
8.81
-0.66
-7.53
-10.81
-10.03
-5.48
1.87
10.72
19.82
28.28
35.65
41.80
46.72
50.34
52.48
52.97
51.81
49.26
45.77
41.85
37.83
33.78
29.52
24.82
19.57
13.82
7.71
1.32
-5.39
-12.49
-19.77
-26.60
-31.93
-34.66
-34.10
-30.41
-24.61
-18.26
-12.95
-9.72
-8.83
-9.76
-11.36
-12.31
-11.41
-8.04
-2.43
4.33
10.50
14.30
14.43
10.54
3.17
-6.52
-17.38
-28.61
-39.98
-51.61
-63.78
-76.67
-90.17
-103.56
-115.42
-123.51
-125.25
-118.54
-102.66
-78.97
-50.60
-21.56
4.69
26.25
42.98
55.99
66.55
75.39
82.55
87.81
91.25
93.53
95.70
98.74
103.02
108.15
113.14
116.76
118.08
116.77
113.14
108.05
102.52
97.30
92.70
88.64
84.88
81.35
78.22
75.76
74.00
72.61
70.96
68.45
64.74
59.78
53.69
46.57
38.54
29.92
21.37
13.88
8.43
5.62
5.49
7.72
11.87
17.74
25.34
34.54
44.73
54.59
62.26
65.71
63.37
54.55
39.69
20.51
-0.16
-18.85
-32.20
-37.92
-35.49
-26.35
-13.46
-0.22
10.58
17.52
20.74
21.32
20.63
19.65
18.71
17.62
15.96
13.44
9.98
5.82
1.38
-2.73
-5.85
-7.38
-7.00
-4.68
-0.77
4.06
9.07
13.61
17.33
20.25
22.72
25.32
28.62
32.96
38.28
44.12
49.62
53.89
56.29
56.78
55.92
54.64
53.69
53.25
52.82
51.59
49.05
45.56
42.36
41.02
42.67
47.41
54.22
61.54
67.99
72.93
76.55
79.48
82.25
85.05
87.78
90.41
93.40
97.81
105.02
116.14
131.32
149.36
167.90
184.11
195.51
200.72
199.62
193.06
182.21
168.13
151.32
131.64
108.40
80.25
45.15
0.81
-54.13
-118.43
-186.65
-249.04
-293.52
-309.60
-292.76
-247.23
-185.51
-124.15
-77.77
-53.92
-51.26
-61.86
-75.96
-86.63
-92.12
-95.21
-100.59
-112.12
-131.42
-158.00
-190.07
-225.33
-261.05
-293.90
-320.11
-336.27
-340.48
-333.17
-317.15
-296.73
-276.37
-259.40
-247.27
-239.39
-233.65
-227.22
-217.47
-202.70
-182.58
-158.25
-131.72
-105.11
-79.65
-55.19
-30.25
-2.71
29.03
65.12
103.73
141.50
174.53
199.62
215.24
221.68
220.60
214.01
203.42
189.36
171.61
149.68
123.56
94.15
63.18
32.81
5.00
-19.00
-38.65
-53.80
-64.37
-70.20
-71.29
-68.27
-62.43
-55.51
-49.01
-43.44
-38.13
-31.50
-21.80
-7.77
11.03
34.25
60.84
89.16
116.93
141.46
160.09
170.90
173.29
167.98
156.59
140.84
122.16
101.56
79.97
58.64
39.20
23.35
12.31
6.37
4.70
5.67
7.36
8.17
7.51
5.94
5.08
7.11
14.05
27.04
45.89
69.04
93.86
117.36
136.83
150.39
157.24
157.44
151.65
140.65
125.17
105.88
83.68
59.94
36.48
15.17
-2.63
-16.37
-26.31
-33.15
-37.64
-40.53
-42.68
-45.33
-49.76
-56.74
-65.67
-74.17
-78.68
-75.64
-63.10
-41.68
-14.59
13.43
37.65
54.78
63.68
65.31
61.98
56.18
49.73
43.35
36.83
29.54
21.11
11.72
2.25
-5.92
-11.18
-11.84
-6.54
5.38
23.40
45.53
68.41
88.02
100.77
104.76
100.71
91.94
83.46
80.31
85.77
100.09
120.48
142.16
160.14
170.80
172.59
165.73
151.26
130.29
103.79
72.90
39.38
5.69
-25.51
-52.03
-72.64
-87.10
-95.84
-99.57
-99.09
-95.61
-90.93
-87.48
-87.77
-93.45
-104.39
-118.36
-131.49
-139.50
-139.27
-129.97
-113.36
-93.10
-73.33
-57.21
-46.09
-39.23
-34.43
-29.02
-20.91
-9.47
4.28
18.12
29.51
36.71
39.40
38.78
36.96
36.10
37.67
42.10
48.99
57.40
66.17
74.12
80.24
84.04
85.93
87.35
90.44
97.25
108.74
124.19
141.29
156.80
167.69
171.94
168.91
158.96
142.85
121.26
94.75
64.07
30.50
-3.92
-36.71
-65.41
-88.13
-103.98
-113.22
-117.28
-118.57
-120.16
-125.03
-135.20
-150.91
-170.26
-189.67
-205.04
-213.18
-212.86
-205.04
-192.21
-177.31
-162.76
-149.90
-139.01
-129.53
-120.45
-110.60
-99.11
-85.88
-71.77
-58.45
-47.57
-39.75
-33.95
-27.69
-18.14
-3.49
16.08
38.47
60.59
79.67
94.05
103.37
108.20
109.59
108.87
107.67
107.89
111.30
118.83
130.07
143.14
155.24
163.54
166.09
162.15
152.12
137.02
118.14
96.68
73.79
50.57
28.09
7.22
-11.38
-27.32
-40.28
-50.00
-56.27
-59.40
-60.56
-61.95
-66.14
-74.97
-88.40
-103.92
-117.17
-123.59
-120.22
-107.00
-86.71
-63.78
-42.56
-25.95
-14.90
-8.79
-6.12
-5.18
-4.44
-2.83
-0.02
3.34
5.68
5.00
-0.18
-9.93
-22.48
-34.73
-43.30
-45.86
-41.90
-32.80
-21.10
-9.50
0.05
6.93
11.81
16.38
22.80
33.05
48.37
68.88
93.50
120.11
146.02
168.41
184.80
193.31
192.82
183.05
164.53
138.59
107.21
72.75
37.48
3.17
-29.17
-59.06
-86.16
-109.78
-128.89
-142.43
-149.95
-152.00
-149.96
-145.46
-139.64
-132.77
-124.52
-114.64
-103.55
-92.52
-83.32
-77.41
-75.50
-77.35
-82.06
-88.44
-95.41
-101.98
-107.18
-109.93
-108.97
-103.25
-92.22
-76.20
-56.48
-34.90
-13.35
6.82
24.97
41.01
54.94
66.62
75.84
82.79
88.37
94.24
102.31
113.97
129.39
147.37
165.70
181.72
193.05
197.81
194.84
183.70
164.81
139.57
110.37
80.19
51.94
27.73
8.35
-6.70
-18.84
-29.72
-40.55
-51.88
-63.66
-75.64
-87.57
-99.33
-110.65
-120.92
-129.21
-134.39
-135.59
-132.52
-125.60
-115.78
-104.37
-92.86
-82.84
-76.09
-74.36
-79.05
-90.66
-108.29
-129.45
-150.26
-166.12
-172.76
-167.37
-149.50
-121.32
-86.88
-50.75
-16.57
13.88
40.71
65.04
88.03
110.23
131.63
152.02
171.35
189.75
207.14
223.03
236.52
246.77
253.42
256.65
256.95
254.70
249.85
241.88
229.98
213.34
191.42
164.20
132.44
97.76
62.44
28.85
-1.42
-28.06
-52.00
-74.70
-96.99
-118.16
-135.95
-147.38
-150.18
-143.96
-130.51
-113.18
-95.62
-80.65
-69.67
-62.79
-59.43
-58.90
-60.80
-64.93
-71.22
-79.63
-90.03
-102.23
-115.77
-129.64
-142.12
-151.06
-154.46
-151.40
-142.51
-129.87
-116.17
-103.55
-92.59
-82.10
-69.83
-53.61
-32.43
-6.87
21.18
49.37
75.61
98.57
117.75
133.30
145.75
155.91
164.71
173.07
181.49
189.85
197.12
201.58
201.26
194.54
180.59
159.52
132.22
100.09
64.82
28.32
-7.31
-40.01
-68.16
-90.97
-108.59
-121.67
-130.74
-135.70
-135.83
-130.38
-119.38
-104.09
-86.79
-69.98
-55.60
-44.60
-37.13
-33.05
-32.38
-35.32
-41.91
-51.69
-63.58
-76.12
-87.73
-97.05
-103.16
-105.61
-104.56
-100.76
-95.51
-90.33
-86.34
-83.75
-81.52
-77.63
-69.70
-55.91
-35.63
-9.54
20.71
53.16
85.96
117.45
145.98
169.61
186.29
194.36
193.22
183.84
168.52
150.21
131.44
113.52
96.47
79.41
61.40
42.09
21.95
1.98
-16.90
-34.34
-50.79
-67.15
-84.05
-101.10
-116.55
-127.66
-131.67
-126.92
-113.67
-93.93
-70.75
-47.15
-25.26
-6.21
9.49
21.40
28.87
31.23
28.26
20.66
10.07
-1.17
-10.53
-16.05
-16.96
-14.14
-10.03
-8.10
-11.62
-22.43
-40.12
-61.86
-83.18
-99.19
-105.93
-101.34
-85.61
-60.89
-30.55
1.66
32.41
59.27
80.91
96.94
107.74
114.22
117.61
119.27
120.32
121.18
121.40
119.81
114.92
105.70
92.04
74.81
55.46
35.27
14.79
-6.15
-28.02
-50.78
-73.23
-93.06
-107.38
-113.72
-110.82
-99.07
-80.26
-57.05
-32.37
-8.90
11.07
25.90
34.61
37.04
33.80
26.03
15.08
2.15
-11.80
-26.06
-39.95
-52.60
-62.99
-70.11
-73.38
-73.06
-70.57
-68.24
-68.53
-72.99
-81.35
-91.34
-99.27
-101.38
-95.18
-80.21
-58.11
-31.76
-4.28
21.84
45.13
64.92
81.04
93.47
102.19
107.38
109.54
109.52
108.29
106.58
104.57
101.83
97.57
91.05
81.87
70.09
55.99
39.81
21.58
1.32
-20.68
-43.53
-65.64
-84.96
-99.33
-106.93
-106.60
-98.17
-82.56
-61.97
-39.52
-18.75
-2.74
6.68
9.31
6.42
0.09
-7.56
-15.05
-21.69
-27.48
-32.81
-38.29
-44.56
-52.25
-61.80
-73.28
-86.25
-99.75
-112.43
-122.87
-129.88
-132.68
-130.86
-124.17
-112.24
-94.46
-70.22
-39.47
-3.27
35.97
74.95
110.26
139.44
161.43
176.54
185.77
190.17
190.55
187.56
182.04
175.18
168.20
161.87
155.98
149.35
140.13
126.50
107.25
82.27
52.75
21.09
-9.53
-35.88
-55.52
-67.40
-71.96
-70.67
-65.19
-56.88
-46.61
-35.17
-23.80
-14.25
-8.46
-7.79
-12.37
-21.04
-31.90
-43.09
-53.53
-63.09
-72.30
-81.88
-92.35
-103.85
-116.25
-129.19
-142.14
-154.23
-164.23
-170.62
-171.96
-167.27
-156.46
-140.25
-119.88
-96.51
-70.81
-42.91
-12.81
19.01
51.24
81.79
108.41
129.42
144.22
153.27
157.55
158.06
155.53
150.69
144.50
138.26
133.21
129.93
127.94
125.71
121.32
113.23
100.80
84.37
64.95
43.87
22.57
2.51
-14.84
-28.17
-36.62
-39.91
-38.32
-32.47
-23.09
-11.04
2.61
16.22
27.64
34.56
35.23
29.14
17.25
1.78
-14.48
-29.03
-40.39
-48.43
-54.31
-60.06
-67.86
-79.13
-93.80
-109.80
-123.54
-130.87
-128.57
-115.64
-93.79
-66.89
-39.63
-16.06
1.49
12.64
18.58
21.35
22.97
25.01
28.32
33.08
38.91
45.13
51.02
55.96
59.58
61.68
62.29
61.61
60.02
57.97
55.78
53.51
50.92
47.71
43.84
39.80
36.42
34.47
34.08
34.49
34.19
31.54
25.41
15.66
3.06
-11.00
-25.00
-37.56
-47.53
-54.14
-57.14
-57.06
-55.29
-53.73
-54.20
-57.82
-64.59
-73.57
-83.36
-92.71
-100.95
-107.88
-113.29
-116.55
-116.37
-111.01
-98.98
-79.61
-53.54
-22.76
9.71
40.43
66.21
84.66
94.60
96.17
90.81
80.86
69.09
58.00
49.39
43.99
41.66
41.72
43.39
45.95
48.86
51.54
53.33
53.42
51.06
45.66
37.10
25.86
13.12
0.71
-9.26
-14.90
-15.17
-10.26
-1.53
8.95
19.15
27.58
33.48
36.60
36.90
34.41
29.28
22.01
13.52
5.21
-1.51
-5.61
-6.94
-6.30
-5.17
-5.14
-7.43
-12.59
-20.50
-30.64
-42.43
-55.23
-68.37
-80.94
-91.81
-99.80
-103.94
-103.75
-99.16
-90.42
-78.06
-62.95
-46.59
-31.04
-18.41
-10.16
-6.41
-5.76
-5.77
-3.96
1.14
9.51
19.89
30.46
39.71
46.78
51.41
53.55
52.94
49.25
42.47
33.58
24.68
18.68
18.26
24.84
37.85
54.80
72.08
86.06
94.11
95.15
89.54
78.62
64.01
47.20
29.31
11.32
-5.67
-20.31
-31.17
-37.19
-38.32
-35.77
-31.87
-29.35
-30.40
-36.09
-46.16
-59.33
-73.83
-87.72
-99.16
-106.52
-108.66
-105.31
-97.21
-86.08
-74.01
-62.71
-52.96
-44.49
-36.51
-28.39
-20.31
-13.21
-8.32
-6.29
-6.59
-7.39
-6.21
-0.84
9.74
24.93
42.71
60.48
75.85
87.27
94.18
96.88
96.21
93.57
90.79
89.92
92.67
99.49
109.04
118.23
123.19
120.87
110.31
93.13
72.84
53.34
37.39
25.88
18.00
12.09
6.61
0.69
-5.95
-13.43
-22.00
-32.14
-44.23
-58.20
-73.39
-88.74
-103.25
-116.39
-128.11
-138.49
-147.30
-153.71
-156.57
-155.10
-149.56
-141.52
-133.36
-127.31
-124.54
-124.71
-126.15
-126.49
-123.35
-114.84
-99.86
-78.41
-51.77
-22.55
5.81
30.06
48.47
61.53
71.87
82.88
97.12
114.86
133.98
150.90
162.33
166.75
165.07
160.16
155.58
154.28
157.62
165.24
175.48
186.10
194.89
200.05
200.20
194.43
182.37
164.40
141.86
116.84
91.57
67.63
45.34
23.93
2.24
-20.25
-42.86
-63.78
-80.90
-92.91
-99.94
-103.63
-106.39
-110.31
-116.26
-123.59
-130.46
-134.58
-134.09
-128.11
-116.95
-101.93
-85.09
-68.72
-55.00
-45.75
-42.06
-44.12
-50.93
-60.35
-69.41
-75.03
-74.98
-68.45
-56.32
-40.71
-24.12
-8.45
5.61
18.42
30.82
43.15
54.77
64.18
69.86
71.27
69.47
67.03
67.12
72.43
84.27
102.24
124.41
147.91
169.43
185.78
194.24
192.93
181.24
159.94
131.17
97.96
63.61
30.98
2.05
-22.25
-41.88
-57.41
-69.66
-79.36
-87.04
-93.04
-97.73
-101.77
-106.02
-111.33
-117.96
-125.24
-131.56
-134.88
-133.62
-127.42
-117.34
-105.51
-94.35
-85.72
-80.46
-78.39
-78.54
-79.52
-79.86
-78.35
-74.31
-67.91
-60.16
-52.67
-46.91
-43.47
-41.62
-39.38
-34.31
-24.56
-9.67
9.15
29.50
48.54
63.91
74.32
79.77
81.51
81.74
83.05
87.85
97.63
112.53
131.18
151.13
169.40
183.28
190.84
191.09
183.90
169.88
150.22
126.57
100.88
75.10
50.86
29.25
10.79
-4.39
-16.37
-25.26
-31.30
-35.02
-37.42
-40.03
-44.63
-52.74
-64.99
-80.67
-97.62
-112.82
-123.30
-127.06
-123.78
-114.79
-102.51
-89.60
-78.22
-69.74
-64.63
-62.65
-62.97
-64.29
-65.10
-64.16
-60.92
-55.88
-50.41
-46.05
-43.83
-43.63
-44.21
-43.73
-40.48
-33.50
-22.87
-9.50
5.16
19.63
32.69
43.72
52.84
60.98
69.71
80.82
95.68
114.66
136.82
160.06
181.66
198.97
210.05
213.90
210.19
199.06
180.78
155.81
125.12
90.38
54.08
19.03
-12.24
-38.15
-58.34
-73.57
-85.12
-94.35
-102.23
-109.34
-115.98
-122.27
-128.12
-133.14
-136.57
-137.40
-134.78
-128.45
-119.06
-108.07
-97.35
-88.53
-82.62
-79.82
-79.62
-81.05
-82.91
-83.90
-82.80
-78.70
-71.38
-61.48
-50.43
-39.98
-31.43
-25.04
-19.87
-14.18
-6.30
4.50
17.72
31.75
44.73
55.46
63.91
71.23
79.06
88.81
100.97
114.98
129.49
142.87
153.72
161.09
164.54
163.94
159.37
151.05
139.23
124.31
106.71
86.95
65.55
43.13
20.33
-2.15
-23.56
-43.16
-60.30
-74.47
-85.48
-93.53
-99.18
-103.11
-105.91
-107.72
-108.19
-106.63
-102.43
-95.51
-86.56
-76.93
-68.23
-61.82
-58.52
-58.57
-61.85
-68.06
-76.70
-86.91
-97.26
-106.00
-111.44
-112.64
-109.79
-104.07
-97.03
-89.74
-82.25
-73.56
-62.25
-47.45
-29.43
-9.78
9.22
25.66
38.78
49.29
58.91
69.46
82.00
96.58
112.48
128.83
144.99
160.56
174.95
186.95
194.69
196.14
189.88
175.63
154.46
128.36
99.64
70.43
42.45
17.10
-4.46
-21.40
-33.37
-40.82
-45.12
-48.40
-52.96
-60.50
-71.55
-85.24
-99.68
-112.53
-121.78
-126.21
-125.60
-120.62
-112.52
-103.00
-93.97
-87.40
-85.07
-88.20
-97.16
-111.17
-128.22
-145.33
-159.16
-166.76
-166.35
-157.88
-142.95
-124.23
-104.50
-85.80
-68.98
-53.88
-39.89
-26.49
-13.48
-0.78
11.96
25.55
41.01
59.01
79.31
100.71
121.50
140.17
156.00
169.07
179.79
188.26
193.86
195.30
191.17
180.54
163.36
140.52
113.59
84.62
55.86
29.45
6.90
-11.29
-25.85
-38.41
-50.82
-64.30
-78.83
-93.11
-104.98
-112.13
-112.81
-106.28
-93.01
-74.52
-53.15
-31.65
-12.62
1.87
10.62
13.38
10.62
3.30
-7.38
-20.10
-33.64
-47.03
-59.64
-71.26
-81.93
-91.71
-100.46
-107.65
-112.43
-113.84
-111.06
-103.63
-91.58
-75.28
-55.24
-31.99
-5.99
22.15
51.58
81.07
109.11
134.35
155.95
173.89
188.94
202.22
214.66
226.40
236.60
243.59
245.38
240.22
227.17
206.31
178.76
146.35
111.24
75.44
40.63
7.96
-21.91
-48.76
-72.56
-93.30
-110.73
-124.35
-133.45
-137.50
-136.45
-130.90
-122.00
-111.14
-99.55
-88.15
-77.63
-68.64
-61.97
-58.55
-59.15
-64.07
-72.93
-84.72
-97.82
-110.11
-118.96
-121.47
-115.24
-99.41
-75.64
-48.27
-23.19
-5.88
0.77
-2.36
-11.00
-19.25
-21.79
-15.62
-0.58
21.27
46.76
72.81
96.81
116.85
131.63
140.47
143.47
141.55
136.19
128.97
120.98
112.52
103.04
91.64
77.57
60.69
41.67
21.66
1.98
-16.31
-32.66
-47.06
-60.01
-72.28
-84.60
-97.06
-108.76
-117.68
-121.31
-117.55
-105.68
-87.02
-64.62
-42.40
-23.86
-11.16
-4.73
-3.54
-5.86
-9.95
-14.61
-19.32
-24.12
-29.31
-35.24
-42.08
-49.85
-58.43
-67.58
-76.86
-85.43
-92.02
-95.19
-93.91
-88.00
-78.24
-65.93
-51.97
-36.20
-17.41
5.91
34.43
67.22
101.76
134.76
163.26
185.49
201.03
210.44
214.73
214.86
211.57
205.28
196.25
184.59
170.47
154.27
136.55
117.97
99.02
79.84
60.17
39.60
17.86
-5.06
-28.88
-53.09
-76.97
-99.47
-119.09
-133.86
-141.69
-140.87
-130.84
-112.71
-89.37
-65.08
-44.37
-30.79
-25.89
-28.86
-37.17
-47.83
-58.73
-69.41
-80.90
-94.87
-112.59
-134.25
-158.81
-184.08
-206.96
-223.78
-231.08
-226.76
-211.06
-186.83
-158.46
-129.88
-102.50
-74.43
-41.49
0.43
52.76
112.87
174.64
230.50
273.99
301.60
313.36
312.24
302.82
289.87
277.17
266.82
259.06
252.60
245.25
234.68
218.96
196.86
167.78
131.64
88.98
41.08
-9.68
-59.81
-105.07
-141.31
-165.38
-175.86
-173.32
-160.05
-139.49
-115.38
-91.16
-69.42
-51.71
-38.58
-29.85
-24.94
-23.02
-23.10
-23.99
-24.39
-23.15
-19.74
-14.45
-8.33
-2.73
1.25
3.19
3.32
2.07
-0.45
-4.69
-11.51
-21.49
-34.22
-47.82
-59.06
-64.18
-60.08
-45.50
-21.58
8.33
39.68
68.02
90.23
105.16
113.59
117.53
119.26
120.57
122.26
124.11
125.28
124.70
121.36
114.57
103.91
89.36
71.40
51.02
29.62
8.63
-11.05
-29.25
-46.45
-63.08
-78.81
-92.04
-100.19
-100.56
-91.52
-73.58
-49.55
-23.96
-1.70
13.38
19.48
16.98
7.82
-5.47
-20.80
-36.93
-53.35
-69.82
-85.88
-100.56
-112.67
-121.11
-125.36
-125.77
-123.44
-120.09
-117.57
-117.29
-119.83
-124.47
-129.18
-130.94
-126.55
-113.55
-91.18
-60.62
-24.76
12.64
48.02
78.80
103.76
122.87
136.94
147.12
154.50
159.83
163.48
165.34
164.92
161.53
154.57
143.82
129.51
112.14
92.26
70.11
45.71
19.16
-8.75
-36.17
-60.26
-77.85
-86.39
-84.99
-74.75
-58.46
-39.72
-21.96
-7.75
1.50
5.42
4.57
0.19
-6.10
-12.64
-18.29
-22.78
-26.82
-31.62
-38.28
-47.05
-57.09
-66.81
-74.51
-79.21
-81.07
-81.29
-81.55
-83.20
-86.51
-90.29
-92.14
-89.16
-79.05
-61.00
-36.05
-6.77
23.59
52.14
77.04
97.60
114.02
126.84
136.44
142.90
145.97
145.37
141.05
133.34
122.83
110.20
95.90
79.95
61.86
40.89
16.63
-10.50
-38.82
-65.60
-87.63
-102.07
-107.29
-103.37
-92.17
-76.80
-60.87
-47.56
-38.96
-35.75
-37.15
-41.39
-46.25
-49.72
-50.54
-48.54
-44.58
-40.13
-36.73
-35.42
-36.47
-39.26
-42.80
-46.19
-49.08
-51.78
-54.95
-59.02
-63.80
-68.31
-71.01
-70.30
-65.00
-54.73
-39.93
-21.65
-1.25
19.94
40.78
60.35
77.89
92.73
104.31
112.26
116.48
117.18
114.79
109.82
102.83
94.46
85.57
77.20
70.16
64.50
59.06
51.62
39.62
21.25
-3.68
-33.48
-64.86
-93.74
-116.06
-128.47
-128.98
-117.41
-95.60
-67.16
-36.56
-8.04
15.43
32.51
43.13
47.86
47.30
41.98
32.69
20.71
7.92
-3.68
-12.40
-17.46
-19.20
-18.99
-18.89
-20.95
-26.72
-36.72
-50.39
-66.23
-82.16
-95.92
-105.31
-108.42
-103.82
-90.94
-70.30
-43.68
-13.69
16.77
45.26
70.33
91.44
108.67
122.16
131.74
136.95
137.31
132.72
123.74
111.66
98.11
84.56
71.76
59.43
46.41
31.25
12.95
-8.43
-31.54
-54.12
-73.65
-87.93
-95.54
-95.93
-89.52
-77.68
-62.72
-47.51
-34.73
-25.94
-21.00
-18.32
-15.79
-12.13
-7.76
-4.57
-4.82
-9.64
-18.07
-27.39
-34.26
-36.34
-33.34
-27.02
-20.39
-16.38
-16.91
-22.34
-31.59
-42.57
-52.64
-59.14
-59.80
-53.26
-39.31
-19.13
5.18
31.19
56.82
80.72
102.17
120.70
135.85
147.28
155.03
159.74
162.46
163.98
164.28
162.25
156.16
144.45
126.57
103.39
76.68
48.37
19.80
-8.52
-36.43
-63.38
-87.82
-107.12
-118.35
-119.42
-110.11
-92.52
-70.54
-48.70
-30.70
-18.55
-12.38
-11.11
-13.33
-18.03
-24.83
-33.81
-45.18
-59.04
-75.34
-93.72
-113.08
-131.28
-145.20
-151.47
-147.88
-134.69
-114.92
-93.42
-74.89
-61.92
-54.03
-48.22
-40.63
-28.41
-10.84
10.77
34.01
56.51
76.72
94.04
108.44
120.07
128.81
134.27
135.92
133.49
127.23
117.89
106.46
93.65
79.39
62.87
42.98
19.17
-7.83
-35.98
-62.47
-84.76
-101.36
-111.93
-116.81
-116.26
-110.07
-97.93
-80.17
-58.44
-35.65
-15.19
0.26
9.53
13.15
12.67
9.83
5.84
1.19
-4.11
-10.16
-16.97
-24.39
-32.20
-39.99
-47.22
-53.24
-57.55
-60.03
-61.12
-61.44
-61.44
-60.85
-58.69
-53.50
-43.94
-29.28
-9.56
14.43
41.28
69.19
96.01
119.48
137.62
149.23
154.27
153.93
150.23
145.35
140.97
137.78
135.40
132.58
127.64
118.93
105.25
86.06
61.68
33.23
2.62
-27.72
-55.27
-77.95
-94.47
-104.41
-107.95
-105.49
-97.38
-84.00
-66.18
-45.56
-24.69
-6.49
6.60
13.46
14.64
12.01
7.86
4.07
1.44
-0.29
-2.04
-4.83
-9.33
-15.68
-23.61
-32.65
-42.24
-51.81
-60.65
-67.89
-72.70
-74.43
-72.92
-68.52
-61.95
-53.86
-44.51
-33.65
-20.74
-5.41
12.06
30.68
48.94
65.30
78.57
88.11
93.61
94.95
92.13
85.37
75.33
62.97
49.30
35.03
20.31
5.04
-10.72
-26.28
-40.33
-51.42
-58.59
-61.83
-62.05
-60.47
-57.95
-54.47
-49.35
-41.89
-32.17
-21.48
-11.98
-5.89
-4.45
-7.40
-13.25
-20.06
-26.38
-31.82
-36.80
-41.82
-46.81
-50.89
-52.81
-51.68
-47.49
-41.09
-33.69
-26.18
-18.89
-11.64
-4.27
3.14
10.23
16.72
22.86
29.50
37.76
48.34
61.05
74.66
87.35
97.53
104.54
108.83
111.76
114.85
119.11
124.53
130.00
133.56
132.95
126.26
112.55
92.34
67.65
41.60
17.56
-1.77
-15.00
-22.29
-24.97
-25.02
-24.36
-24.32
-25.17
-26.03
-25.29
-21.61
-14.91
-7.05
-1.38
-1.36
-8.79
-22.74
-39.72
-55.15
-65.36
-68.99
-67.17
-62.62
-58.20
-55.81
-55.92
-57.77
-59.89
-60.60
-58.53
-52.99
-44.27
-33.53
-22.50
-12.95
-6.16
-2.50
-1.45
-1.82
-2.16
-1.15
2.04
7.67
15.37
24.27
33.21
41.09
47.15
51.11
53.20
53.86
53.39
51.66
48.16
42.42
34.50
25.31
16.48
9.73
6.12
5.53
6.71
7.94
7.87
5.99
2.67
-1.29
-5.19
-8.73
-11.93
-14.90
-17.69
-20.38
-23.38
-27.53
-33.91
-43.45
-56.38
-72.06
-89.18
-106.35
-122.54
-137.30
-150.48
-161.76
-170.28
-174.69
-173.46
-165.43
-150.25
-128.59
-102.07
-73.08
-44.42
-18.92
1.17
14.65
21.84
24.52
25.42
27.34
32.24
40.75
52.25
65.41
78.85
91.52
102.64
111.42
116.83
117.78
113.73
105.23
94.22
83.57
76.11
73.61
76.13
82.20
89.55
95.98
99.97
100.77
98.06
91.57
80.91
65.82
46.51
24.04
0.19
-22.86
-43.15
-59.45
-71.37
-79.42
-84.70
-88.74
-93.20
-99.47
-108.28
-119.20
-130.49
-139.34
-142.70
-138.42
-126.14
-107.65
-86.38
-66.15
-49.93
-38.91
-32.49
-28.88
-26.05
-22.40
-17.04
-9.56
0.21
12.35
26.75
42.94
60.10
77.20
93.13
106.88
117.58
124.60
127.87
128.23
127.64
128.89
134.64
146.36
163.36
182.75
200.13
211.01
212.08
202.04
181.54
152.40
116.64
75.92
31.49
-15.18
-61.82
-105.29
-142.14
-169.70
-186.98
-194.95
-196.15
-193.82
-190.97
-189.78
-191.23
-194.95
-199.21
-201.22
-197.87
-186.67
-166.83
-139.65
-108.15
-76.14
-47.10
-23.45
-6.30
4.42
9.70
11.18
10.81
10.35
10.84
12.30
13.87
14.44
13.41
11.21
9.13
8.77
11.24
16.73
24.75
34.68
46.35
60.05
76.23
94.76
114.67
134.37
152.53
168.93
184.75
201.85
221.34
242.15
260.55
271.08
268.57
250.27
217.16
173.64
125.81
79.35
37.85
2.23
-28.58
-56.45
-82.87
-108.15
-131.27
-150.21
-162.59
-166.45
-160.97
-146.77
-125.84
-101.00
-75.25
-51.18
-30.84
-15.80
-7.30
-6.20
-12.67
-25.90
-44.02
-64.40
-84.35
-101.75
-115.31
-124.43
-128.91
-128.76
-124.47
-117.19
-108.68
-100.51
-92.94
-84.19
-70.70
-48.64
-15.96
26.19
73.66
120.90
163.26
198.61
227.37
251.22
271.24
286.87
296.12
296.70
287.41
268.93
243.61
214.63
184.85
156.10
128.97
103.17
78.21
53.67
29.38
5.24
-18.96
-43.19
-66.79
-87.92
-103.65
-110.75
-106.99
-92.51
-70.22
-45.01
-22.10
-5.23
4.18
6.77
4.06
-2.72
-13.08
-26.87
-43.45
-61.09
-77.19
-89.09
-95.13
-95.31
-91.12
-84.92
-79.30
-76.57
-78.47
-85.85
-98.15
-113.03
-126.50
-133.86
-131.08
-116.29
-90.42
-56.74
-19.55
17.25
51.04
80.47
104.85
123.51
135.66
140.77
139.09
131.90
121.10
108.61
95.64
82.51
68.83
54.16
38.36
21.79
5.20
-10.58
-24.72
-36.47
-45.00
-49.33
-48.48
-41.63
-28.49
-9.45
14.21
40.23
65.46
86.18
98.84
101.12
92.92
76.67
56.69
37.64
22.87
13.22
7.16
1.80
-5.53
-16.26
-30.42
-47.29
-66.19
-86.67
-108.03
-128.60
-145.46
-155.14
-155.02
-144.69
-126.50
-104.79
-84.19
-67.89
-56.62
-48.85
-42.01
-34.01
-24.11
-13.00
-2.00
7.84
16.30
23.95
31.52
39.20
46.29
51.30
52.57
48.90
40.10
27.15
12.09
-2.47
-13.87
-20.04
-20.03
-14.26
-4.34
7.59
19.70
31.23
42.67
55.30
70.27
87.70
106.14
122.75
134.08
137.22
130.77
115.33
93.34
68.46
44.51
24.40
9.44
-0.98
-8.96
-17.37
-28.68
-44.07
-62.86
-82.60
-99.85
-111.30
-114.89
-110.52
-100.04
-86.63
-73.80
-64.42
-60.12
-61.16
-66.65
-74.93
-84.01
-91.82
-96.41
-96.28
-90.55
-79.32
-63.72
-45.80
-28.09
-13.04
-2.53
2.49
2.03
-3.00
-10.95
-19.69
-26.92
-30.59
-29.38
-22.96
-11.97
2.20
17.86
33.28
46.80
56.93
62.24
61.60
54.50
41.45
24.05
4.90
-13.11
-27.55
-37.15
-42.08
-43.68
-43.89
-44.65
-47.54
-53.54
-63.10
-75.95
-90.91
-105.65
-116.96
-121.38
-116.27
-100.75
-76.09
-45.36
-12.69
17.71
42.22
58.39
65.22
63.32
54.79
42.75
30.58
21.05
15.79
15.08
18.15
23.71
30.46
37.32
43.56
48.71
52.55
55.13
56.70
57.75
58.92
60.99
64.75
70.82
79.33
89.64
100.27
109.24
114.57
114.86
109.51
98.69
82.89
62.76
39.10
13.21
-12.94
-36.70
-55.29
-66.66
-70.26
-67.38
-60.86
-54.36
-51.34
-54.16
-63.44
-77.81
-94.31
-109.19
-119.10
-122.12
-118.47
-110.29
-100.80
-93.14
-89.25
-89.37
-92.19
-95.44
-96.83
-94.79
-88.84
-79.60
-68.38
-56.55
-44.97
-33.67
-21.83
-8.38
7.42
25.37
44.17
61.79
76.15
85.85
90.86
92.55
93.39
96.03
102.44
113.06
126.66
140.73
152.46
159.67
161.46
158.25
151.22
141.51
129.72
115.69
98.71
78.19
54.04
27.00
-1.42
-29.28
-54.55
-75.36
-90.21
-98.22
-99.60
-95.77
-89.16
-82.36
-77.20
-74.03
-71.96
-69.57
-66.02
-61.42
-56.62
-52.33
-48.39
-43.86
-37.65
-29.58
-20.77
-13.23
-8.96
-8.98
-12.97
-19.59
-27.05
-33.65
-38.14
-39.81
-38.42
-34.09
-27.23
-18.55
-8.97
0.48
9.03
16.33
22.81
29.53
37.75
48.31
61.16
75.44
89.92
103.65
116.17
127.19
135.94
140.70
139.17
129.39
110.91
85.48
56.64
28.50
4.33
-14.43
-28.19
-38.56
-47.47
-56.46
-66.46
-77.65
-89.45
-100.48
-108.79
-112.38
-109.93
-101.48
-88.60
-73.87
-60.03
-49.01
-41.43
-36.77
-33.97
-32.14
-31.15
-31.59
-34.54
-41.02
-51.51
-65.44
-81.14
-95.90
-106.67
-110.96
-107.65
-97.60
-83.50
-68.96
-57.27
-50.08
-46.63
-44.09
-38.52
-26.49
-6.29
21.45
54.14
88.16
120.00
147.11
168.17
182.95
191.86
195.61
194.95
190.68
183.62
174.57
164.13
152.56
139.69
124.94
107.61
87.07
63.04
35.57
5.00
-28.07
-62.65
-97.04
-128.62
-153.99
-169.61
-172.99
-163.72
-143.99
-118.18
-91.49
-68.42
-51.60
-41.71
-38.00
-39.24
-44.35
-52.49
-62.65
-73.31
-82.46
-88.12
-89.03
-85.26
-78.14
-69.74
-62.21
-57.06
-54.89
-55.36
-57.23
-58.63
-57.34
-51.32
-39.18
-20.66
3.32
30.96
60.03
88.49
114.84
138.13
157.89
173.83
185.61
192.79
194.87
191.43
182.43
168.29
150.07
129.36
107.92
87.28
68.27
50.83
34.09
16.88
-1.80
-22.17
-43.58
-64.64
-83.80
-99.74
-111.75
-119.67
-123.54
-123.33
-118.82
-109.85
-96.76
-80.79
-64.05
-49.14
-38.35
-32.89
-32.41
-35.25
-39.10
-41.93
-42.82
-42.17
-41.44
-42.53
-47.14
-56.34
-70.33
-88.28
-108.19
-126.96
-140.81
-146.20
-140.99
-125.23
-101.18
-72.62
-43.57
-17.05
5.56
24.46
40.80
55.89
70.65
85.31
99.60
112.99
125.03
135.56
144.71
152.76
159.85
165.71
169.60
170.47
167.27
159.31
146.48
129.37
109.19
87.65
66.66
47.98
32.92
22.05
15.15
11.30
9.22
7.52
5.02
0.93
-5.02
-12.48
-20.50
-27.77
-33.11
-36.03
-37.04
-37.62
-39.62
-44.53
-52.94
-64.42
-77.88
-92.24
-106.89
-121.74
-137.00
-152.66
-168.09
-181.80
-191.67
-195.30
-190.63
-176.58
-153.44
-123.07
-88.54
-53.46
-21.20
5.83
26.53
41.15
50.97
57.81
63.54
69.65
77.04
85.97
96.18
107.04
117.59
126.67
132.85
134.58
130.56
120.26
104.40
85.13
65.53
48.83
37.31
31.59
30.46
31.52
32.09
30.19
25.03
16.93
6.74
-4.69
-16.85
-29.42
-41.92
-53.32
-62.11
-66.82
-66.83
-63.08
-58.04
-54.87
-56.15
-62.89
-74.17
-87.90
-101.80
-114.23
-124.34
-131.51
-134.82
-132.78
-123.83
-106.98
-82.45
-51.76
-17.33
17.99
51.32
79.84
100.96
112.73
114.30
106.34
91.16
72.20
53.33
37.80
27.59
23.19
23.77
27.68
32.88
37.29
38.96
36.43
29.17
18.21
6.32
-2.52
-4.43
2.87
18.91
40.56
63.20
82.44
95.48
101.48
100.97
94.93
84.01
68.58
49.01
26.29
2.12
-21.34
-41.95
-58.09
-68.95
-74.75
-76.75
-77.24
-79.06
-84.69
-95.25
-109.61
-124.47
-135.28
-137.97
-130.55
-113.84
-91.13
-66.87
-45.17
-28.70
-18.38
-13.55
-12.51
-13.05
-12.96
-10.55
-5.10
2.89
11.97
20.40
27.01
31.76
35.69
40.25
46.51
54.49
63.12
70.79
76.20
79.17
80.85
83.30
88.64
98.07
111.38
127.15
143.31
158.03
170.05
178.73
183.57
183.82
178.45
166.63
148.31
124.58
97.45
69.19
41.69
15.99
-7.59
-29.18
-48.82
-66.24
-80.92
-92.29
-99.80
-103.03
-101.62
-95.41
-84.62
-70.18
-53.79
-37.65
-23.83
-13.62
-7.02
-2.85
0.71
5.32
11.70
19.39
27.01
32.88
35.80
35.34
31.79
25.88
18.39
9.98
1.29
-7.02
-14.24
-19.77
-23.47
-25.67
-26.98
-27.86
-28.17
-27.06
-23.14
-15.00
-1.66
17.11
40.68
67.45
94.97
120.06
139.32
149.77
149.65
138.92
119.21
93.33
64.40
35.13
7.45
-17.55
-39.46
-58.49
-75.27
-90.81
-105.90
-120.59
-133.69
-142.73
-144.67
-137.06
-119.09
-92.14
-59.50
-25.47
5.68
30.62
47.28
54.82
53.37
43.74
27.30
5.96
-17.80
-41.12
-61.09
-75.40
-82.97
-84.37
-81.71
-77.96
-75.74
-76.43
-79.59
-83.18
-84.38
-80.42
-69.38
-50.48
-24.19
7.92
43.46
79.54
113.29
142.50
165.95
183.46
195.48
202.48
204.76
202.42
195.86
186.12
174.90
163.92
154.11
144.94
134.46
120.00
99.35
71.73
38.11
0.86
-37.06
-72.62
-102.94
-125.32
-137.32
-137.43
-125.82
-104.95
-79.26
-53.99
-33.48
-19.89
-12.90
-10.59
-10.90
-12.88
-17.05
-24.82
-37.37
-54.66
-75.02
-95.57
-112.97
-124.53
-128.96
-126.70
-119.69
-110.71
-102.36
-96.16
-91.89
-87.51
-79.86
-65.88
-43.98
-14.77
18.99
53.51
85.38
112.65
134.93
152.67
166.12
174.67
177.03
171.97
159.35
140.47
117.78
94.03
71.35
50.68
31.81
13.82
-4.41
-23.81
-44.79
-67.07
-89.46
-109.76
-124.99
-132.18
-129.34
-116.48
-95.99
-72.12
-49.53
-31.74
-20.07
-13.77
-11.09
-10.68
-12.47
-17.46
-26.69
-40.11
-55.94
-71.08
-82.17
-86.78
-84.18
-75.27
-62.05
-46.90
-32.12
-19.78
-11.42
-7.83
-8.51
-11.62
-14.15
-12.87
-5.30
9.45
30.47
55.48
81.70
106.68
128.73
146.93
160.68
169.44
172.62
169.64
160.39
145.41
126.04
104.16
81.76
60.49
41.38
24.87
10.84
-1.07
-11.36
-20.54
-29.06
-37.12
-44.54
-50.70
-54.67
-55.57
-52.91
-46.94
-38.60
-29.38
-20.84
-14.38
-10.97
-11.04
-14.50
-20.80
-28.99
-37.94
-46.55
-53.98
-59.89
-64.49
-68.52
-72.94
-78.61
-86.05
-95.22
-105.56
-116.01
-125.25
-131.78
-134.17
-131.21
-122.21
-107.16
-86.93
-63.11
-37.69
-12.58
10.88
32.14
51.31
68.86
85.25
100.78
115.57
129.78
143.59
157.14
170.15
181.57
189.56
191.89
186.55
172.40
149.52
119.21
83.71
45.79
8.48
-25.19
-52.43
-71.08
-80.06
-79.69
-71.77
-59.15
-45.07
-32.34
-22.74
-16.78
-13.85
-12.80
-12.69
-13.35
-15.50
-20.26
-28.35
-39.41
-52.10
-64.53
-75.28
-83.99
-91.53
-99.33
-108.52
-119.15
-129.95
-138.74
-143.19
-141.64
-133.57
-119.74
-101.88
-82.21
-62.94
-45.88
-32.26
-22.77
-17.59
-16.48
-18.55
-22.32
-25.79
-26.91
-24.11
-16.80
-5.55
8.15
22.34
35.12
44.94
50.71
51.78
47.98
39.67
27.98
14.83
2.76
-5.58
-8.03
-3.53
7.59
23.67
42.04
59.63
73.60
81.86
83.34
77.93
66.38
50.17
31.34
12.27
-4.67
-17.67
-26.06
-30.53
-32.84
-35.02
-38.54
-43.76
-50.16
-56.89
-63.23
-68.77
-72.98
-74.83
-72.79
-65.30
-51.55
-32.17
-9.15
14.68
36.46
54.01
66.05
72.02
71.85
65.80
54.57
39.45
22.52
6.38
-6.27
-13.37
-14.10
-9.13
-0.35
9.82
19.22
26.60
31.83
35.64
39.09
42.94
47.40
52.13
56.57
60.22
62.75
63.93
63.50
61.17
56.94
51.46
46.13
42.50
41.17
41.02
39.36
33.29
21.56
5.70
-10.62
-23.59
-31.80
-37.25
-44.47
-57.89
-79.17
-106.08
-133.45
-155.44
-167.89
-169.41
-160.95
-144.62
-122.63
-96.77
-68.67
-40.07
-13.08
9.93
26.82
36.04
36.95
30.03
16.74
-0.69
-19.70
-37.87
-53.18
-64.23
-70.32
-71.34
-67.89
-61.22
-53.02
-45.01
-38.22
-32.58
-26.81
-18.91
-7.11
9.29
29.56
51.69
73.12
91.53
105.33
113.85
117.04
115.14
108.42
97.24
82.13
63.90
43.62
22.49
1.69
-17.69
-34.79
-49.14
-60.72
-70.05
-78.05
-85.64
-93.17
-100.06
-104.68
-104.95
-99.15
-86.77
-68.80
-47.42
-25.17
-4.12
14.54
30.26
42.70
51.23
54.97
53.28
46.40
35.80
23.90
13.23
5.51
1.05
-1.12
-2.61
-4.86
-8.60
-13.70
-19.24
-23.71
-25.17
-21.42
-10.52
8.59
35.39
67.64
101.71
133.67
160.31
179.88
192.13
197.74
197.55
192.01
181.24
165.32
144.81
120.83
94.95
68.62
42.70
17.36
-7.80
-33.37
-59.74
-86.94
-114.31
-140.33
-162.50
-177.56
-182.28
-174.63
-154.89
-125.92
-92.48
-59.79
-31.86
-10.62
3.96
12.94
17.32
17.57
13.77
6.17
-4.44
-16.80
-29.63
-42.04
-53.64
-64.31
-73.81
-81.68
-87.41
-90.76
-91.78
-90.59
-86.74
-78.83
-64.72
-42.28
-10.65
29.04
73.59
118.62
159.91
194.44
220.82
238.90
249.12
251.98
248.03
238.22
224.07
207.51
190.29
173.20
155.76
136.63
114.29
87.92
57.73
24.69
-9.89
-44.63
-78.00
-108.06
-132.35
-148.38
-154.29
-149.65
-135.59
-114.47
-89.12
-62.31
-36.53
-14.14
2.70
12.28
13.93
8.48
-1.75
-13.69
-24.51
-32.61
-38.06
-42.35
-47.70
-56.14
-68.73
-85.05
-103.08
-119.48
-130.30
-131.94
-122.17
-100.81
-69.86
-32.86
6.11
43.67
77.76
107.78
133.89
156.37
175.03
189.23
198.29
202.02
200.98
196.24
188.91
179.67
168.57
155.12
138.57
118.28
93.89
65.59
34.29
1.73
-29.61
-56.92
-77.65
-90.21
-94.37
-91.29
-82.98
-71.58
-58.73
-45.32
-31.63
-17.83
-4.51
7.07
15.18
18.29
15.72
8.08
-3.00
-15.50
-27.76
-38.94
-48.86
-57.63
-65.26
-71.65
-76.77
-80.93
-84.64
-88.07
-90.49
-89.96
-83.85
-69.95
-47.57
-18.13
15.22
48.69
79.12
104.86
125.83
143.00
157.54
170.20
181.06
189.66
195.28
197.32
195.39
189.33
179.05
164.43
145.37
121.87
94.43
64.26
33.31
4.10
-21.00
-40.34
-53.60
-61.90
-67.45
-72.76
-79.80
-89.15
-99.68
-108.92
-114.18
-113.95
-109.00
-102.45
-98.59
-100.96
-110.70
-126.09
-143.48
-159.08
-170.55
-177.47
-180.54
-180.46
-177.24
-170.51
-160.33
-147.87
-135.21
-124.35
-116.16
-109.90
-103.71
-95.71
-84.99
-71.94
-57.92
-44.41
-32.16
-20.89
-9.32
4.28
21.36
42.51
67.14
93.65
119.94
144.19
165.36
183.32
198.47
211.07
220.69
226.00
225.08
216.21
198.62
172.92
141.10
106.09
71.05
38.81
11.39
-10.15
-25.73
-36.14
-42.74
-47.17
-51.01
-55.52
-61.43
-69.00
-77.99
-87.66
-96.82
-103.95
-107.63
-107.17
-103.25
-98.01
-94.57
-95.78
-102.88
-114.77
-128.04
-138.18
-141.13
-134.82
-119.82
-99.18
-77.31
-58.62
-46.22
-41.12
-42.12
-46.45
-50.87
-52.91
-51.63
-47.72
-42.76
-38.11
-33.97
-29.06
-21.24
-8.70
8.99
30.42
52.72
72.66
87.78
97.18
101.55
102.69
102.74
103.54
106.43
112.25
121.49
134.28
150.03
167.22
183.24
194.80
198.48
191.58
172.87
143.00
104.72
62.66
22.44
-10.48
-32.47
-42.88
-44.34
-41.89
-40.94
-45.31
-55.82
-70.26
-84.53
-94.39
-97.03
-91.94
-80.87
-67.30
-55.46
-49.37
-51.80
-63.44
-82.43
-104.46
-123.99
-135.95
-137.48
-128.85
-113.03
-94.22
-75.84
-59.30
-43.78
-27.37
-8.48
13.10
36.20
59.02
80.03
98.39
113.75
125.83
134.24
138.77
139.89
138.97
138.06
139.24
143.74
151.33
160.06
166.47
166.43
156.30
134.19
100.87
59.80
16.06
-25.31
-61.02
-90.29
-114.42
-135.57
-155.45
-174.59
-192.50
-208.21
-220.76
-229.38
-233.43
-232.32
-225.80
-214.23
-198.79
-181.17
-163.03
-145.42
-128.55
-111.93
-94.96
-77.63
-60.81
-46.15
-35.45
-30.01
-29.97
-34.23
-40.75
-47.15
-51.32
-51.82
-47.94
-39.64
-27.32
-11.72
6.26
25.77
46.12
66.97
88.26
109.99
131.97
153.70
174.51
193.86
211.40
226.93
240.01
249.74
254.77
253.85
246.37
232.76
214.24
192.25
167.84
141.35
112.76
82.22
50.51
18.94
-11.22
-39.35
-65.64
-90.45
-113.43
-132.96
-146.43
-151.43
-147.04
-134.63
-117.44
-99.31
-83.28
-70.78
-61.81
-55.89
-52.97
-53.86
-59.87
-71.85
-89.27
-109.82
-129.87
-145.43
-153.51
-153.04
-145.16
-132.68
-119.02
-107.07
-98.44
-93.27
-90.37
-87.58
-82.16
-71.27
-52.64
-25.19
10.41
51.69
94.93
136.04
171.59
199.45
219.07
231.28
237.88
241.00
242.55
243.60
244.05
242.59
237.05
225.03
204.75
175.70
139.04
97.42
54.35
13.33
-22.85
-52.46
-74.71
-89.36
-96.43
-96.18
-89.35
-77.42
-62.54
-47.11
-33.12
-21.77
-13.47
-8.38
-6.75
-9.30
-16.84
-29.90
-48.33
-71.23
-97.16
-124.56
-151.82
-177.22
-198.60
-213.36
-218.86
-213.35
-196.73
-170.91
-139.37
-106.10
-74.28
-45.45
-19.24
6.02
32.32
60.96
91.82
123.31
152.69
176.78
192.73
198.73
194.56
181.67
163.01
142.17
122.49
106.01
93.04
82.27
71.50
58.60
42.34
22.77
1.16
-20.42
-39.57
-54.01
-62.03
-62.79
-56.68
-45.23
-30.82
-15.93
-2.37
9.04
18.25
25.34
29.97
31.22
28.00
19.70
6.51
-10.55
-30.18
-51.42
-73.85
-97.38
-121.67
-145.68
-167.56
-185.07
-196.20
-199.78
-195.60
-184.28
-166.75
-144.02
-116.99
-86.54
-53.78
-20.03
13.15
44.25
71.94
95.29
113.74
127.22
135.97
140.64
142.00
140.78
137.45
132.11
124.65
115.00
103.28
89.73
74.60
58.17
40.93
23.94
8.80
-2.74
-9.57
-11.92
-11.52
-10.88
-12.20
-16.31
-22.31
-28.17
-31.75
-31.84
-28.63
-23.54
-18.55
-15.39
-15.09
-17.81
-23.11
-30.30
-38.86
-48.59
-59.59
-72.00
-85.58
-99.46
-111.86
-120.32
-122.28
-116.00
-101.38
-80.20
-55.59
-30.84
-8.22
11.55
28.94
44.68
58.77
70.37
78.39
82.52
83.78
84.34
86.59
92.00
100.63
111.37
122.60
132.81
140.70
145.05
144.55
138.02
125.00
106.34
84.42
62.68
44.53
32.24
26.23
25.14
26.56
27.85
26.96
22.62
14.30
2.05
-13.71
-32.17
-52.28
-72.81
-92.52
-110.34
-125.47
-137.36
-145.89
-151.55
-155.78
-161.02
-170.18
-185.74
-208.63
-237.53
-268.88
-297.62
-318.55
-327.44
-321.86
-301.32
-267.06
-221.90
-170.08
-116.86
-67.64
-26.74
3.84
25.02
40.24
53.96
70.04
90.38
114.64
140.95
167.10
191.43
212.98
231.13
245.15
254.24
258.01
257.15
253.50
249.47
246.90
245.96
244.96
241.10
231.93
216.62
196.33
173.58
150.93
129.98
111.05
93.65
77.36
62.27
48.92
37.63
27.94
18.47
7.34
-7.07
-25.52
-47.61
-71.87
-95.89
-116.65
-130.80
-135.39
-128.55
-110.36
-83.15
-51.20
-19.73
6.40
23.91
31.68
30.80
23.94
14.52
5.82
0.37
-0.45
3.52
11.47
21.88
32.98
42.98
50.41
54.31
54.38
51.04
45.35
38.76
32.86
28.99
27.96
29.84
33.94
39.01
43.48
45.92
45.28
41.05
33.15
21.86
7.71
-8.53
-25.80
-42.75
-57.87
-69.97
-78.65
-84.76
-90.27
-97.68
-108.97
-124.70
-143.62
-163.03
-179.76
-191.25
-196.25
-194.89
-188.31
-178.04
-165.50
-151.74
-137.36
-122.68
-107.73
-92.43
-76.81
-61.20
-46.21
-32.54
-20.50
-9.67
1.10
13.38
28.40
46.39
66.36
86.42
104.65
119.92
132.15
141.98
149.78
154.91
155.50
149.24
134.64
112.13
84.36
55.53
30.06
11.16
-0.06
-4.55
-4.65
-3.13
-2.23
-3.13
-6.00
-10.23
-15.00
-19.85
-25.07
-31.71
-41.25
-55.11
-73.89
-96.93
-122.19
-146.53
-166.42
-178.92
-182.47
-177.34
-165.64
-150.66
-135.88
-123.82
-115.28
-109.12
-102.75
-93.16
-78.05
-56.71
-30.26
-1.33
26.70
50.63
68.26
78.90
83.51
84.35
84.22
85.52
89.47
95.82
103.34
110.67
117.21
123.41
130.39
139.17
149.92
161.77
173.06
181.83
186.23
184.81
176.62
161.35
139.51
112.51
82.39
51.41
21.53
-5.98
-30.44
-51.60
-69.38
-83.69
-94.44
-101.81
-106.47
-109.80
-113.76
-120.30
-130.54
-144.03
-158.57
-170.90
-177.99
-178.24
-172.06
-161.56
-149.51
-138.21
-128.91
-121.91
-116.78
-112.61
-107.86
-100.37
-87.79
-68.54
-42.91
-13.39
15.92
40.69
57.90
66.81
68.88
66.96
64.29
63.69
67.23
76.11
90.60
109.90
132.25
155.29
176.73
194.99
209.34
219.68
226.06
228.36
226.29
219.70
208.82
194.16
176.19
155.02
130.42
102.23
70.86
37.54
4.02
-27.96
-57.07
-82.46
-103.30
-118.43
-126.47
-126.62
-119.47
-107.27
-93.18
-79.99
-68.95
-59.56
-50.48
-40.93
-31.68
-24.99
-23.59
-29.29
-42.12
-60.29
-80.97
-101.18
-118.48
-131.17
-138.38
-140.05
-137.13
-131.39
-124.97
-119.45
-114.97
-109.87
-101.15
-85.71
-61.81
-29.99
7.08
45.69
82.36
114.95
142.82
166.30
185.84
201.57
213.28
220.73
223.87
222.73
217.12
206.36
189.40
165.38
134.21
96.93
55.60
12.89
-28.49
-66.04
-97.58
-121.24
-135.53
-139.62
-133.64
-118.90
-97.78
-73.27
-48.44
-25.90
-7.52
5.68
13.37
15.83
13.78
8.33
0.95
-6.86
-13.86
-19.40
-23.48
-26.54
-29.16
-31.85
-35.17
-39.97
-47.33
-58.08
-71.98
-87.03
-99.68
-105.77
-102.13
-87.79
-64.32
-35.09
-3.96
25.77
51.84
72.76
87.39
95.04
95.86
91.32
84.23
77.96
75.13
76.55
80.82
84.93
85.58
80.54
69.37
53.48
35.40
17.85
2.90
-8.47
-16.33
-21.41
-24.53
-26.19
-26.28
-24.23
-19.40
-11.61
-1.59
8.89
17.37
21.30
18.83
9.37
-6.30
-26.33
-48.32
-70.13
-90.36
-108.72
-125.94
-143.39
-162.43
-183.56
-205.86
-226.68
-242.16
-248.19
-241.65
-221.20
-187.54
-143.02
-91.06
-35.66
18.96
68.66
109.84
140.16
159.01
167.71
169.08
166.60
163.33
161.22
160.68
160.74
159.52
154.81
144.76
128.36
105.72
78.12
47.94
18.29
-7.43
-26.23
-36.28
-37.48
-31.52
-21.40
-10.61
-2.07
2.42
2.37
-1.64
-8.38
-16.39
-24.30
-31.12
-36.55
-41.06
-45.85
-52.52
-62.56
-76.83
-95.22
-116.67
-139.43
-161.43
-180.74
-195.76
-205.37
-208.77
-205.33
-194.41
-175.48
-148.29
-113.24
-71.75
-26.28
19.85
63.05
100.15
129.13
149.46
162.04
168.73
171.68
172.72
173.09
173.46
174.04
174.78
175.35
175.11
173.13
168.37
160.00
147.80
132.20
114.19
95.05
76.13
58.68
43.73
32.00
23.64
18.01
13.61
8.35
0.10
-12.66
-30.32
-51.98
-75.66
-98.89
-119.40
-135.69
-147.32
-154.94
-159.87
-163.63
-167.29
-171.01
-173.85
-173.86
-168.54
-155.61
-133.84
-103.62
-67.09
-27.54
11.47
47.17
78.14
104.17
125.75
143.33
157.01
166.53
171.71
172.75
170.38
165.70
159.85
153.71
147.68
141.58
134.72
125.98
114.23
98.78
80.05
60.01
41.98
29.80
26.39
32.38
45.61
61.69
75.57
83.22
82.81
74.73
60.82
43.18
23.42
2.40
-19.51
-42.03
-64.89
-87.86
-110.89
-134.16
-158.02
-182.97
-209.56
-238.33
-269.44
-302.06
-334.06
-362.22
-383.07
-394.08
-394.54
-385.59
-369.45
-348.19
-322.79
-293.04
-258.27
-218.29
-174.11
-127.89
-82.16
-38.95
0.95
38.10
73.96
110.31
148.86
191.04
237.83
289.30
343.75
397.09
443.02
474.53
486.43
477.76
452.83
419.95
388.34
364.66
350.85
344.20
339.33
330.84
315.09
290.55
257.19
215.78
167.80
115.92
64.17
17.39
-20.15
-46.40
-62.45
-72.03
-80.02
-90.46
-105.21
-123.64
-143.33
-161.16
-174.26
-180.60
-179.23
-170.23
-154.57
-133.96
-110.47
-86.15
-62.74
-41.60
-23.81
-10.30
-1.81
1.37
-0.22
-5.01
-10.74
-15.28
-17.45
-17.51
-16.88
-17.39
-20.38
-26.31
-34.84
-45.23
-56.54
-67.39
-75.66
-78.45
-72.82
-56.89
-31.01
2.00
37.70
71.43
99.72
120.95
135.13
143.17
146.15
144.91
139.99
131.73
120.42
106.25
89.34
69.77
47.60
23.02
-3.70
-32.08
-61.44
-90.60
-117.66
-139.98
-154.55
-158.76
-151.39
-133.30
-107.55
-78.78
-51.91
-30.93
-17.99
-13.30
-15.77
-23.76
-35.74
-50.39
-66.43
-82.55
-97.70
-111.61
-125.05
-139.48
-155.97
-174.01
-190.87
-202.32
-204.37
-195.05
-175.27
-148.10
-116.95
-83.84
-48.72
-10.27
32.54
79.15
127.00
172.50
212.28
244.25
267.92
283.81
292.69
295.05
291.13
281.39
266.99
249.93
232.62
217.09
204.06
192.56
180.17
163.84
141.08
110.96
74.63
34.97
-4.22
-39.37
-67.93
-88.65
-101.41
-106.74
-105.59
-99.19
-89.11
-77.27
-65.75
-56.43
-50.64
-48.94
-51.15
-56.50
-63.83
-71.82
-79.19
-84.89
-88.46
-90.14
-90.81
-91.67
-93.84
-97.84
-103.29
-108.65
-111.43
-108.73
-98.19
-78.96
-52.37
-21.68
8.87
35.50
56.01
70.22
79.52
85.85
90.91
95.66
100.50
105.61
111.19
117.43
124.15
130.65
135.64
137.55
134.98
127.01
113.50
95.08
73.18
49.84
27.40
7.95
-7.19
-17.94
-25.42
-31.45
-37.72
-45.16
-53.61
-62.13
-69.55
-75.10
-78.65
-80.72
-82.34
-84.87
-89.77
-98.39
-111.43
-128.54
-148.07
-167.36
-183.52
-194.47
-199.73
-200.44
-198.91
-197.60
-198.28
-201.41
-206.03
-209.78
-209.37
-201.16
-182.20
-151.22
-109.40
-60.30
-8.99
39.32
80.64
113.01
136.45
152.33
162.60
169.17
173.67
177.39
181.29
185.79
190.74
195.30
198.21
198.07
193.84
185.25
172.97
158.49
143.57
129.60
117.06
105.37
93.28
79.56
63.60
45.60
26.28
6.46
-13.32
-32.72
-51.36
-68.51
-83.21
-94.65
-102.76
-108.44
-113.38
-119.54
-128.39
-140.50
-155.48
-172.17
-189.02
-204.19
-215.66
-221.34
-219.38
-208.68
-189.42
-163.20
-132.85
-101.75
-72.92
-48.31
-28.52
-13.02
-0.78
8.96
16.34
21.08
23.02
22.90
22.51
24.12
29.51
38.97
50.95
62.72
71.56
75.91
75.97
73.31
69.99
67.60
66.88
67.78
70.01
73.36
77.79
83.12
88.62
92.89
94.07
90.34
80.48
64.28
42.55
16.89
-10.65
-37.96
-63.14
-84.70
-101.76
-114.20
-122.62
-128.32
-133.05
-138.65
-146.56
-157.26
-169.94
-182.50
-191.95
-195.35
-190.67
-177.59
-157.58
-133.60
-109.28
-88.19
-73.03
-65.28
-65.00
-70.89
-80.38
-89.97
-95.91
-95.03
-85.72
-68.70
-47.00
-25.08
-7.37
3.37
6.93
5.67
3.56
4.89
13.11
30.20
56.50
90.97
131.56
175.77
221.18
266.12
309.83
352.06
392.30
429.05
459.82
481.76
493.01
493.63
485.70
472.58
457.52
442.59
428.40
414.52
400.33
385.75
371.22
357.32
344.16
331.08
316.89
300.44
281.16
259.44
236.44
213.63
192.16
172.42
153.90
135.45
115.88
94.46
71.32
47.47
24.38
3.43
-14.71
-30.39
-44.80
-59.59
-76.17
-95.14
-116.11
-138.03
-159.61
-179.99
-199.05
-217.53
-236.73
-258.40
-284.36
-315.95
-353.12
-393.41
-431.67
-460.89
-474.37
-468.27
-443.39
-405.19
-361.86
-321.43
-289.23
-266.89
-252.91
-244.33
-238.34
-233.16
-228.06
-222.95
-218.07
-213.70
-210.06
-206.83
-202.77
-195.69
-182.80
-161.63
-131.18
-92.61
-49.21
-5.55
33.83
65.60
88.12
101.34
106.18
103.97
96.19
84.43
70.33
55.40
40.61
26.09
11.14
-5.43
-24.75
-47.40
-73.30
-101.91
-132.51
-164.17
-195.34
-223.41
-244.62
-254.81
-250.70
-231.30
-198.56
-156.94
-112.11
-69.19
-31.60
-0.65
24.08
43.88
60.18
74.09
86.10
95.86
102.21
103.29
97.05
82.05
58.10
26.55
-9.79
-47.22
-81.63
-108.85
-125.07
-127.23
-113.64
-84.47
-41.81
10.84
69.60
131.05
192.53
251.78
306.32
353.22
389.81
414.80
429.13
435.63
437.61
437.02
433.50
424.84
408.78
384.73
354.60
322.16
291.26
264.14
240.72
219.00
196.00
168.86
135.94
97.71
57.32
20.21
-7.26
-19.94
-15.95
2.56
30.30
60.99
89.12
111.63
127.55
137.20
140.03
135.08
122.11
102.91
81.10
60.43
43.59
31.18
22.09
13.46
2.14
-13.79
-34.29
-57.79
-83.18
-109.13
-134.31
-156.69
-176.19
-193.65
-210.00
-225.31
-239.11
-254.14
-272.51
-294.71
-316.64
-337.38
-357.53
-379.14
-404.22
-434.97
-479.18
-539.65
-610.42
-672.04
-711.28
-721.88
-706.52
-673.12
-633.16
-608.20
-612.40
-646.90
-691.86
-735.46
-770.95
-796.84
-811.05
-812.53
-814.90
-828.46
-854.80
-875.12
-884.74
-886.04
-886.25
-888.75
-811.52
-616.74
-323.58
-72.28
109.51
227.36
315.17
383.46
438.07
482.93
508.22
508.81
489.02
473.06
469.50
477.98
491.64
506.49
520.64
523.67
510.02
482.07
457.89
443.76
439.20
438.89
439.85
440.74
435.23
420.37
398.54
382.10
375.54
378.00
383.90
387.48
383.40
364.96
329.79
281.44
231.17
187.64
156.14
137.53
130.03
130.03
132.50
133.98
133.48
133.05
134.04
137.00
141.53
147.08
152.85
157.93
161.18
161.47
157.86
150.00
138.23
123.47
106.84
89.30
71.36
53.09
34.45
15.75
-1.92
-16.52
-25.40
-26.05
-17.04
1.25
26.49
54.98
82.76
106.67
124.86
136.75
142.47
142.42
137.09
127.20
113.88
98.70
83.29
68.91
56.15
44.79
34.09
23.14
11.22
-2.12
-17.07
-33.52
-50.99
-68.39
-83.94
-95.32
-100.27
-97.37
-86.54
-69.21
-47.90
-25.48
-4.43
13.55
27.48
36.89
41.54
41.39
36.74
28.35
17.43
5.37
-6.59
-17.67
-27.78
-37.41
-47.50
-59.15
-73.27
-90.22
-109.36
-128.72
-145.08
-154.50
-153.46
-139.95
-114.35
-79.42
-39.50
0.68
37.12
67.17
89.47
103.55
109.52
107.85
99.60
86.40
70.50
54.25
39.78
28.46
20.75
16.12
13.25
10.26
5.06
-4.07
-17.93
-35.79
-55.15
-72.14
-82.48
-82.78
-71.72
-50.50
-22.45
8.03
36.82
60.98
79.08
90.83
96.47
96.36
90.85
80.56
66.61
50.62
34.41
19.44
6.50
-4.47
-14.07
-23.09
-32.16
-41.70
-51.91
-62.67
-73.46
-83.04
-89.49
-90.54
-84.27
-69.82
-47.86
-20.40
9.68
39.34
65.88
87.15
101.56
108.09
106.45
97.30
82.40
64.34
46.04
30.00
17.73
9.40
4.09
0.19
-3.90
-9.29
-16.19
-23.89
-30.91
-35.30
-35.21
-29.35
-17.29
0.35
22.23
46.59
71.64
95.73
117.23
134.45
145.61
149.20
144.47
131.90
113.34
91.51
69.25
48.71
30.84
15.46
1.68
-11.51
-24.83
-38.59
-52.69
-66.60
-79.26
-89.12
-94.38
-93.52
-86.00
-72.58
-55.16
-36.06
-17.28
0.01
15.26
28.02
37.35
41.80
39.90
30.99
15.82
-3.44
-23.82
-42.55
-57.81
-69.10
-77.07
-82.88
-87.59
-91.73
-95.19
-97.30
-97.03
-93.29
-85.17
-72.09
-53.96
-31.23
-4.81
24.11
54.22
84.10
112.05
136.07
153.85
163.23
162.79
152.48
133.91
110.03
84.39
60.15
39.29
22.28
8.34
-4.02
-16.27
-29.30
-43.12
-56.73
-68.35
-75.74
-76.84
-70.39
-56.48
-36.65
-13.48
10.25
32.43
52.15
69.58
85.36
99.75
112.17
121.27
125.46
123.74
116.16
103.82
88.48
71.93
55.46
39.69
24.68
10.31
-3.40
-15.92
-26.11
-32.46
-33.49
-28.33
-17.16
-1.26
17.30
36.27
53.76
68.51
79.69
86.61
88.56
85.03
76.15
63.10
48.10
33.93
23.02
16.66
14.60
15.31
16.65
16.67
14.24
9.22
2.34
-5.11
-11.67
-16.06
-17.38
-15.28
-9.99
-2.20
7.11
16.99
26.65
35.61
43.59
50.29
55.32
58.11
58.09
54.95
48.80
40.26
30.28
19.87
9.71
-0.07
-9.91
-20.55
-32.62
-46.16
-60.34
-73.41
-83.15
-87.45
-85.05
-75.91
-61.21
-43.00
-23.51
-4.66
12.21
26.27
36.99
43.92
46.79
45.70
41.33
34.92
27.98
21.84
17.20
14.02
11.61
8.95
5.08
-0.71
-8.67
-18.48
-29.12
-38.93
-45.84
-47.98
-44.29
-35.08
-21.97
-7.34
6.50
17.94
26.36
31.86
34.74
35.24
33.49
29.80
24.74
19.13
13.56
8.14
2.40
-4.46
-13.04
-23.52
-35.49
-48.21
-60.69
-71.74
-79.88
-83.51
-81.20
-72.31
-57.47
-38.60
-18.42
0.41
16.10
28.07
36.76
43.00
47.57
50.90
53.08
54.06
53.74
52.01
48.79
43.96
37.43
29.18
19.31
8.13
-3.92
-16.18
-27.65
-36.89
-42.23
-42.26
-36.21
-24.39
-8.06
10.92
30.68
49.84
67.86
84.43
98.99
110.52
117.90
120.60
119.23
115.59
112.09
111.21
113.95
119.30
124.52
126.50
123.08
113.69
99.39
82.12
64.79
49.57
37.50
28.32
21.29
15.64
10.62
5.61
0.05
-5.12
-8.67
-9.67
-8.33
-5.84
-3.92
-4.35
-7.95
-20.86
-43.95
-72.75
-99.55
-118.72
-129.35
-134.06
-137.61
-142.50
-149.35
-156.86
-164.34
-170.30
-174.49
-176.97
-177.81
-177.61
-177.42
-178.65
-181.11
-183.17
-182.06
-175.44
-162.45
-144.48
-124.95
-107.73
-95.54
-88.17
-83.35
-78.19
-71.13
-62.37
-53.40
-46.04
-41.29
-39.15
-38.63
-38.60
-38.36
-37.76
-36.70
-34.71
-30.99
-24.72
-15.72
-4.62
7.16
17.95
26.33
31.66
34.21
34.87
34.77
34.92
35.91
37.86
40.41
42.86
44.52
45.04
44.67
44.29
45.03
47.66
52.11
57.33
61.75
64.07
63.99
62.34
60.62
60.17
61.41
63.67
65.48
65.40
62.72
57.88
52.23
47.58
45.49
46.88
51.96
60.46
71.82
85.28
99.64
112.83
121.74
122.61
111.88
87.60
50.50
4.21
-45.43
-91.95
-129.65
-154.70
-165.25
-161.15
-143.49
-114.46
-77.52
-37.57
-0.49
27.90
43.52
45.23
35.25
18.27
-0.38
-16.58
-28.58
-36.93
-43.46
-49.97
-57.37
-65.58
-74.11
-82.65
-91.31
-100.15
-108.73
-115.70
-119.15
-117.35
-109.73
-97.37
-82.89
-69.68
-60.87
-58.41
-62.69
-72.67
-86.40
-101.72
-116.80
-130.27
-141.12
-148.37
-150.91
-147.69
-138.19
-123.08
-104.48
-85.74
-70.38
-60.68
-56.53
-55.08
-51.55
-40.75
-18.81
15.66
61.16
113.74
167.90
217.65
257.47
283.17
292.49
285.34
263.70
230.78
190.00
143.97
94.06
40.93
-14.45
-69.82
-121.41
-164.65
-195.47
-211.61
-213.16
-202.19
-181.63
-154.11
-121.49
-85.12
-46.70
-8.69
25.85
54.29
75.59
90.86
102.86
114.67
128.07
142.64
155.88
164.40
165.54
158.47
144.60
126.99
108.94
92.84
79.17
66.35
51.46
31.46
4.65
-28.40
-64.80
-100.36
-130.98
-153.95
-168.48
-175.34
-175.97
-171.65
-163.35
-151.93
-138.63
-125.03
-112.80
-103.17
-96.61
-92.85
-91.10
-90.25
-88.99
-86.07
-80.69
-73.14
-65.20
-59.91
-60.59
-69.32
-85.57
-105.75
-124.04
-134.16
-131.59
-114.95
-86.33
-50.19
-11.54
26.02
61.15
94.41
126.96
158.99
188.97
214.03
231.22
238.85
237.13
227.82
213.41
196.17
177.73
159.00
140.36
121.82
103.11
83.98
64.52
45.54
28.43
14.58
4.55
-2.39
-8.08
-14.54
-22.91
-32.90
-42.88
-50.81
-55.22
-55.72
-53.05
-48.58
-43.78
-39.86
-37.66
-37.68
-40.23
-45.41
-53.12
-62.98
-74.11
-84.99
-93.34
-96.42
-91.66
-77.55
-54.38
-24.66
7.29
36.26
57.55
68.26
68.07
59.11
45.14
30.35
18.27
11.10
9.70
13.96
23.22
36.51
52.62
69.98
86.76
101.14
111.70
117.75
119.41
117.51
113.40
108.50
103.79
99.40
94.44
87.30
76.30
60.50
40.13
16.58
-8.30
-33.17
-57.77
-82.94
-109.56
-137.26
-163.55
-184.06
-194.16
-191.01
-175.25
-151.22
-125.59
-104.96
-93.57
-92.22
-98.74
-109.41
-120.50
-129.18
-133.46
-131.86
-122.99
-105.85
-80.31
-47.72
-10.88
26.45
60.54
88.69
109.81
124.38
133.85
139.93
143.94
146.59
148.05
148.34
147.46
145.49
142.28
137.25
129.41
117.69
101.62
81.87
60.47
40.48
25.22
17.47
18.74
28.73
45.47
65.47
84.41
97.95
102.45
95.48
75.97
44.31
2.52
-45.47
-94.01
-136.61
-167.58
-184.01
-187.03
-181.82
-175.75
-175.48
-184.32
-201.00
-220.47
-236.15
-242.56
-236.99
-219.61
-192.48
-158.30
-119.77
-79.62
-41.04
-7.70
16.81
30.29
33.05
28.04
19.83
12.84
9.91
11.74
17.51
25.85
35.77
46.89
59.11
72.23
85.74
99.10
112.06
124.83
137.91
151.61
165.58
178.70
189.56
197.06
201.06
202.31
201.98
200.82
198.65
194.24
185.80
171.69
150.95
123.47
89.98
51.78
10.58
-31.75
-73.40
-112.76
-148.24
-178.04
-199.92
-211.32
-210.25
-196.30
-171.54
-140.21
-107.56
-78.06
-54.02
-35.39
-20.73
-8.80
0.35
5.23
3.77
-5.53
-22.54
-45.07
-69.09
-89.43
-101.12
-100.97
-88.84
-68.08
-44.52
-24.13
-10.46
-2.93
2.86
13.10
32.82
63.69
103.47
147.22
189.43
225.74
253.74
272.65
282.45
283.45
276.21
261.90
242.50
220.55
198.42
177.46
157.56
137.24
114.27
86.37
51.75
9.71
-38.95
-91.46
-142.97
-187.18
-217.79
-230.34
-223.64
-200.07
-164.89
-124.56
-85.20
-51.42
-25.98
-9.86
-2.71
-3.16
-9.09
-17.99
-27.36
-35.14
-40.20
-42.56
-43.42
-44.94
-49.39
-58.19
-70.82
-84.65
-95.63
-99.84
-94.99
-81.09
-60.16
-35.03
-8.19
18.74
44.95
69.77
92.34
111.58
126.65
137.47
144.73
149.50
152.50
153.60
151.71
145.35
133.39
115.57
92.68
66.24
37.95
9.46
-17.52
-40.99
-58.69
-68.62
-69.88
-63.40
-52.01
-39.73
-30.45
-26.77
-29.43
-37.43
-48.65
-60.58
-70.85
-77.60
-79.84
-77.70
-72.37
-65.85
-60.21
-57.05
-57.12
-60.23
-65.55
-71.77
-77.18
-79.86
-77.94
-70.06
-55.94
-36.64
-14.37
8.30
29.24
47.34
62.41
74.60
83.65
88.74
88.88
83.95
75.43
66.45
60.98
62.28
71.60
87.61
106.78
124.61
137.02
141.49
137.59
126.99
112.83
98.91
88.58
83.82
84.62
89.18
94.49
97.55
96.27
90.01
79.41
65.79
50.49
34.39
17.56
-0.63
-21.10
-44.25
-69.09
-92.84
-111.49
-121.44
-121.40
-113.61
-103.27
-96.42
-97.06
-105.15
-116.81
-126.36
-129.26
-124.01
-112.22
-97.00
-80.89
-64.77
-48.20
-30.87
-13.93
-0.32
6.30
3.40
-8.74
-26.67
-44.87
-58.03
-63.26
-61.34
-56.11
-52.46
-53.80
-60.14
-67.92
-71.52
-65.79
-48.24
-19.90
15.32
52.37
86.74
115.41
136.74
150.00
154.95
151.91
142.11
127.89
112.20
97.71
85.72
75.70
65.71
53.44
37.34
17.09
-6.50
-32.08
-58.27
-83.62
-106.42
-124.43
-135.07
-136.15
-126.75
-107.82
-82.18
-53.87
-27.31
-6.09
7.69
13.77
13.08
6.99
-3.42
-17.58
-34.98
-54.68
-74.87
-93.16
-107.49
-116.92
-121.97
-124.09
-124.51
-123.36
-119.46
-111.07
-97.08
-77.92
-55.65
-33.04
-12.38
5.42
21.14
36.67
53.90
73.63
95.13
116.42
135.14
149.58
159.24
164.67
166.80
166.33
163.40
157.91
149.89
139.93
129.10
118.59
109.18
100.74
92.25
82.17
69.33
53.53
35.79
17.74
0.65
-15.06
-29.84
-44.06
-57.24
-67.76
-73.79
-74.68
-71.94
-69.21
-70.59
-78.72
-93.46
-112.09
-130.84
-146.75
-158.73
-167.26
-173.30
-177.02
-177.45
-173.01
-162.62
-146.42
-125.85
-103.00
-79.74
-57.24
-36.07
-16.57
0.71
15.25
26.89
36.31
44.87
54.03
64.49
75.82
86.49
94.71
99.19
99.61
96.76
92.04
86.99
82.78
79.91
78.29
77.38
76.58
75.44
73.65
70.80
66.16
58.64
47.16
31.24
11.43
-10.61
-32.59
-52.24
-68.01
-79.26
-86.15
-89.38
-89.96
-89.32
-89.30
-91.95
-98.76
-109.90
-123.71
-136.99
-146.04
-147.93
-141.43
-127.34
-107.94
-86.12
-64.58
-45.42
-29.93
-18.61
-11.14
-6.49
-3.17
0.28
4.79
10.55
17.13
24.02
30.96
38.21
46.17
55.05
64.45
73.56
81.56
88.25
94.28
100.93
109.44
120.36
133.29
147.06
160.24
171.52
179.68
183.34
180.75
170.00
149.73
120.07
82.96
41.91
1.00
-36.24
-67.63
-92.66
-112.30
-128.48
-143.40
-158.64
-174.40
-189.08
-199.55
-202.15
-194.20
-175.33
-147.99
-116.87
-87.47
-64.30
-49.75
-43.88
-45.04
-50.87
-59.12
-68.03
-76.44
-83.61
-89.14
-92.99
-95.42
-96.86
-97.67
-97.92
-97.43
-95.91
-93.05
-88.40
-81.09
-69.63
-52.06
-26.70
6.96
47.57
91.86
135.43
173.98
204.41
225.42
237.33
241.46
239.46
233.03
223.84
213.65
204.12
196.50
191.31
188.20
186.04
183.27
178.19
169.04
154.02
131.60
100.99
62.85
19.70
-24.35
-64.48
-96.43
-117.52
-127.07
-126.28
-117.70
-104.74
-91.08
-80.17
-74.49
-75.11
-81.42
-91.46
-102.73
-113.11
-121.54
-128.24
-134.31
-141.20
-150.00
-160.82
-172.42
-182.18
-186.55
-182.03
-166.40
-139.76
-104.72
-65.64
-27.08
7.62
37.12
61.87
83.15
102.13
119.23
134.26
146.81
156.70
164.04
169.03
171.59
171.12
166.68
157.40
143.15
124.88
104.66
85.09
68.42
55.80
46.93
40.44
34.68
28.56
21.87
15.04
8.55
2.27
-4.61
-13.17
-24.10
-37.20
-51.36
-65.01
-76.77
-86.00
-92.99
-98.69
-104.24
-110.49
-117.69
-125.37
-132.41
-137.22
-138.10
-133.85
-124.38
-111.01
-96.23
-82.84
-72.83
-66.57
-62.77
-59.27
-54.13
-46.54
-37.00
-26.77
-16.90
-7.49
2.56
14.98
31.30
51.79
75.10
98.37
118.28
132.19
139.23
140.67
139.34
138.54
140.79
147.13
157.13
169.36
181.97
192.96
200.24
201.72
195.50
180.46
156.73
125.87
90.54
53.82
18.49
-13.41
-40.58
-62.41
-78.94
-91.18
-101.33
-112.49
-127.56
-147.84
-171.74
-194.83
-211.13
-215.53
-205.85
-183.75
-154.01
-122.56
-94.54
-73.08
-59.31
-53.00
-53.31
-58.97
-68.06
-77.78
-84.69
-85.62
-78.73
-64.30
-44.77
-23.78
-4.95
9.33
18.56
23.96
27.90
33.07
41.74
55.34
74.29
98.00
125.03
153.37
180.57
203.97
220.98
229.31
227.38
214.71
192.18
162.00
127.28
91.28
56.67
25.04
-3.20
-28.72
-52.87
-77.21
-102.76
-129.28
-154.68
-175.22
-186.50
-185.09
-169.94
-143.00
-108.56
-71.66
-36.60
-6.03
18.81
37.23
48.43
51.38
45.48
31.33
11.04
-12.17
-34.93
-54.76
-70.66
-82.98
-92.81
-101.26
-108.78
-114.82
-117.85
-115.42
-104.78
-83.64
-51.09
-8.40
40.91
91.80
139.04
178.58
208.39
228.37
239.78
244.21
242.90
236.34
224.36
206.49
182.48
153.00
119.88
85.98
54.41
27.39
5.33
-13.16
-30.33
-47.76
-64.95
-79.13
-86.37
-83.73
-71.07
-51.67
-31.19
-15.41
-7.94
-9.11
-16.41
-26.27
-35.88
-44.15
-51.54
-58.87
-66.22
-72.85
-77.88
-81.43
-85.15
-91.74
-103.69
-121.83
-144.54
-167.95
-186.96
-196.71
-193.85
-177.13
-147.35
-106.83
-58.71
-6.33
46.97
97.94
143.48
180.85
208.27
225.45
233.75
235.75
234.21
231.10
226.89
220.71
210.84
195.47
173.38
144.52
110.39
74.16
40.34
13.70
-2.37
-7.22
-3.35
4.55
11.59
14.60
13.02
8.34
2.52
-3.31
-9.30
-16.23
-24.54
-33.71
-42.53
-49.88
-55.52
-60.17
-65.09
-71.37
-79.39
-88.85
-98.97
-108.73
-116.88
-121.98
-122.43
-116.95
-104.97
-87.11
-65.19
-41.91
-20.28
-2.93
8.32
12.84
11.34
5.81
-0.76
-4.97
-3.83
4.53
20.25
41.76
66.25
90.36
110.86
125.13
131.53
129.74
121.08
108.66
96.98
90.89
94.10
107.70
129.66
155.33
179.02
195.72
202.36
198.06
183.60
160.56
130.75
95.99
58.26
19.71
-17.40
-50.92
-78.98
-100.27
-114.31
-121.65
-123.96
-123.77
-123.68
-125.43
-129.21
-133.53
-136.05
-134.77
-129.08
-120.02
-109.76
-100.59
-94.18
-91.26
-91.87
-95.67
-101.87
-109.01
-114.84
-116.80
-113.02
-103.36
-89.80
-75.70
-64.29
-57.19
-53.63
-50.98
-46.01
-36.24
-20.68
0.27
25.32
52.86
81.10
108.15
132.03
151.02
164.15
171.54
174.40
174.50
173.43
171.99
169.99
166.31
159.43
147.92
130.91
108.34
80.92
49.82
16.25
-18.74
-54.18
-88.69
-120.05
-145.16
-160.64
-163.96
-154.58
-134.57
-108.17
-80.44
-55.80
-36.92
-24.63
-18.54
-17.95
-22.29
-31.12
-43.80
-59.21
-75.84
-92.16
-106.95
-119.41
-129.09
-135.69
-139.18
-139.85
-138.40
-135.52
-131.28
-124.64
-113.51
-95.59
-69.46
-35.63
3.42
43.82
81.63
113.86
139.09
157.23
169.12
175.92
178.76
178.75
176.99
174.42
171.56
168.10
162.70
153.27
137.82
115.42
87.01
55.50
24.95
-0.60
-18.55
-28.43
-31.82
-31.59
-30.69
-31.11
-33.39
-36.68
-39.40
-40.22
-38.81
-36.11
-34.01
-34.46
-38.57
-46.10
-55.59
-65.09
-73.01
-78.80
-83.07
-87.27
-93.19
-102.25
-115.06
-130.97
-148.09
-163.45
-173.71
-176.12
-169.37
-154.01
-132.17
-106.67
-79.97
-53.37
-26.98
-0.18
27.47
55.65
83.15
108.40
130.07
147.69
161.67
173.00
182.59
190.78
196.94
199.44
195.97
184.22
162.86
132.45
95.77
57.47
22.80
-3.85
-20.24
-26.61
-25.29
-19.49
-12.25
-5.81
-1.53
-0.15
-2.09
-7.69
-17.07
-30.09
-46.18
-64.31
-83.06
-100.89
-116.49
-129.01
-138.23
-144.25
-147.24
-147.17
-143.96
-137.89
-130.05
-122.46
-117.58
-117.34
-122.16
-130.48
-138.98
-143.71
-141.51
-131.22
-114.18
-93.71
-73.74
-57.19
-44.74
-34.66
-23.61
-8.44
12.34
37.60
64.06
87.65
105.21
115.80
120.87
123.47
126.88
133.40
143.66
156.71
170.50
182.45
189.97
190.70
182.91
165.91
140.38
108.48
73.45
38.72
7.07
-20.08
-42.52
-60.78
-75.49
-87.07
-95.93
-102.94
-109.63
-117.85
-128.96
-142.86
-157.65
-170.07
-176.67
-175.12
-165.12
-148.43
-128.11
-107.64
-90.11
-77.88
-72.57
-75.01
-84.92
-100.44
-117.87
-132.12
-138.03
-132.08
-113.79
-86.09
-54.19
-23.65
1.63
20.38
33.79
44.24
54.12
65.00
77.65
92.48
109.80
129.72
151.85
175.03
197.52
217.51
233.53
244.59
249.91
248.67
239.90
222.87
197.71
165.78
129.64
92.42
57.01
25.15
-2.83
-27.87
-51.41
-74.39
-96.42
-115.43
-128.22
-131.69
-124.38
-107.49
-84.81
-61.46
-42.10
-29.39
-23.45
-22.58
-24.52
-27.69
-31.64
-36.77
-43.65
-52.48
-63.04
-74.88
-87.56
-100.67
-113.63
-125.52
-135.21
-141.64
-144.25
-143.12
-138.67
-131.12
-119.97
-104.00
-81.75
-52.42
-16.69
23.16
63.73
101.52
133.89
159.42
177.65
188.59
192.43
189.72
181.86
171.25
160.80
152.87
148.10
144.99
140.33
130.51
112.89
86.80
53.72
16.85
-19.71
-51.87
-76.37
-91.31
-96.42
-92.85
-82.73
-68.58
-52.83
-37.69
-25.18
-17.10
-14.82
-18.88
-28.55
-41.87
-56.18
-68.95
-78.61
-84.97
-89.10
-92.86
-98.22
-106.75
-119.26
-135.36
-153.37
-170.15
-181.63
-183.70
-173.47
-150.29
-115.93
-73.91
-28.13
18.21
63.03
104.93
142.49
173.91
197.39
212.04
218.55
219.22
217.05
214.47
212.47
210.48
206.98
200.30
189.26
173.41
153.10
129.38
103.98
78.97
56.30
37.09
21.30
7.86
-4.67
-17.18
-29.53
-40.70
-49.40
-54.95
-57.73
-59.13
-60.89
-64.55
-70.82
-79.50
-89.64
-99.93
-109.20
-116.88
-123.21
-129.16
-136.06
-144.86
-155.54
-166.80
-176.18
-180.77
-178.06
-166.75
-147.14
-121.00
-90.99
-59.90
-30.04
-2.88
21.07
41.98
60.53
77.51
93.52
108.82
123.24
136.28
147.39
156.11
162.03
164.71
163.61
158.26
148.73
136.04
122.31
110.26
102.20
98.95
99.38
100.80
100.07
94.85
84.32
69.18
51.03
31.58
12.12
-6.53
-24.00
-40.14
-54.92
-68.37
-80.56
-91.56
-101.56
-110.99
-120.48
-130.86
-142.60
-155.33
-167.50
-176.70
-180.44
-177.33
-167.76
-153.82
-138.29
-123.35
-109.52
-95.64
-79.86
-60.92
-39.25
-17.02
2.80
17.88
27.76
34.05
39.66
47.21
57.82
70.42
82.37
90.70
93.48
90.67
84.13
76.92
72.30
72.95
80.52
95.46
117.00
143.01
170.07
193.89
210.18
215.73
209.24
191.46
164.65
131.76
95.71
59.10
24.31
-6.49
-31.57
-50.14
-62.90
-72.07
-80.94
-92.62
-108.71
-128.40
-148.59
-165.02
-173.92
-173.47
-164.24
-148.62
-129.58
-109.48
-89.58
-70.50
-52.95
-38.28
-28.28
-24.28
-26.17
-32.06
-38.89
-43.68
-44.84
-42.65
-38.84
-35.49
-33.80
-33.65
-33.80
-32.59
-28.64
-21.11
-9.48
6.74
28.04
54.63
85.96
120.47
155.70
188.81
217.15
238.63
251.77
255.64
249.74
234.15
209.65
177.88
141.07
101.65
61.70
22.46
-15.82
-53.63
-91.56
-129.38
-165.18
-195.23
-214.81
-219.85
-208.78
-183.54
-149.22
-112.33
-78.56
-51.16
-30.58
-15.56
-4.67
2.58
5.52
3.06
-5.39
-19.33
-37.11
-56.32
-74.24
-88.42
-97.04
-99.42
-96.19
-89.02
-79.86
-69.83
-58.43
-43.51
-22.10
7.99
46.82
91.88
138.83
183.00
221.07
251.71
275.25
292.45
303.37
307.06
302.29
288.66
267.44
241.30
213.12
184.70
155.96
125.29
90.73
51.29
7.81
-37.10
-79.67
-116.03
-143.06
-158.91
-163.23
-157.09
-142.67
-122.78
-100.28
-77.75
-57.24
-40.36
-28.33
-21.90
-21.03
-24.70
-30.96
-37.45
-42.18
-44.19
-43.62
-41.27
-37.74
-32.88
-25.92
-16.29
-4.48
7.62
17.37
22.75
23.62
22.10
21.74
25.90
36.19
51.66
69.40
85.77
97.95
104.79
106.81
105.49
102.34
98.34
93.81
88.76
83.18
77.03
69.88
60.63
47.81
30.40
8.91
-14.25
-35.26
-50.42
-57.86
-58.29
-54.59
-50.25
-47.77
-47.74
-49.22
-50.80
-51.75
-52.49
-54.13
-57.52
-62.56
-68.04
-72.28
-74.04
-73.21
-70.86
-68.72
-68.40
-70.85
-76.03
-82.95
-89.85
-94.41
-94.03
-86.46
-70.54
-46.91
-18.02
12.43
40.71
64.15
81.74
93.94
102.07
107.60
111.82
115.68
119.90
124.82
130.32
135.73
140.05
142.36
142.14
139.31
134.04
126.36
116.10
103.01
87.28
69.87
52.56
37.52
26.49
20.08
17.47
16.64
15.06
10.44
1.41
-12.26
-29.67
-48.96
-67.72
-83.48
-94.41
-99.94
-101.20
-100.74
-101.77
-107.00
-117.57
-132.57
-149.24
-163.92
-173.20
-175.05
-169.50
-158.53
-145.32
-133.03
-123.62
-117.04
-111.53
-104.66
-94.70
-81.65
-67.16
-53.63
-42.66
-34.14
-26.09
-15.64
-0.40
20.25
44.84
70.25
92.98
110.36
121.30
126.47
127.69
127.29
127.43
129.74
135.07
143.46
153.95
164.58
172.56
174.80
168.75
153.19
128.70
97.40
62.37
26.54
-7.91
-39.90
-69.12
-95.54
-118.92
-138.74
-154.49
-166.00
-173.76
-178.77
-182.13
-184.63
-186.36
-186.71
-184.59
-178.82
-168.65
-154.12
-136.29
-117.17
-99.40
-85.56
-77.36
-74.98
-76.80
-79.80
-80.55
-76.36
-66.17
-50.79
-32.52
-14.20
1.74
14.11
23.36
31.26
40.25
52.57
69.46
90.89
115.64
141.93
168.02
192.52
214.40
232.76
246.65
255.20
257.85
254.81
246.92
235.35
220.94
203.74
183.00
157.46
125.95
87.95
43.97
-4.35
-54.29
-102.28
-144.33
-176.55
-195.86
-200.79
-192.05
-172.69
-147.49
-121.89
-100.54
-86.21
-79.44
-79.01
-82.85
-89.01
-96.20
-103.73
-111.11
-117.68
-122.59
-124.88
-123.89
-119.45
-112.06
-102.76
-92.80
-83.24
-74.42
-65.72
-55.63
-42.36
-24.51
-1.70
25.20
54.30
83.22
109.67
131.78
148.32
158.77
163.32
162.78
158.45
151.79
144.06
136.00
127.70
118.68
107.99
94.43
76.88
54.75
28.46
-0.30
-28.66
-53.40
-71.87
-82.95
-87.28
-86.79
-83.68
-79.43
-74.54
-68.75
-62.00
-55.05
-49.59
-47.62
-50.41
-57.79
-68.11
-78.92
-88.10
-94.75
-99.52
-104.12
-110.39
-119.31
-130.34
-141.48
-149.86
-152.58
-147.71
-134.74
-114.76
-90.00
-63.11
-36.52
-11.91
9.79
28.27
43.56
55.94
66.07
75.03
84.26
95.12
108.39
123.73
139.65
153.75
163.44
166.72
162.96
153.19
140.00
126.87
117.13
112.85
114.13
119.09
124.60
127.46
125.39
117.63
104.74
87.93
68.35
46.71
23.34
-1.51
-27.39
-53.66
-79.49
-104.04
-126.33
-145.27
-159.73
-168.95
-172.93
-172.48
-168.87
-163.14
-155.61
-145.90
-133.39
-117.88
-100.07
-81.32
-63.22
-47.06
-33.61
-23.29
-16.30
-12.67
-12.05
-13.51
-15.66
-17.07
-16.90
-15.14
-12.43
-9.49
-6.64
-3.48
0.97
7.86
18.15
32.31
50.20
71.00
93.25
115.07
134.65
150.71
162.96
171.94
178.54
183.21
185.35
183.47
175.90
161.82
141.83
117.80
92.07
66.35
41.04
15.24
-12.64
-43.99
-79.12
-116.64
-153.35
-184.54
-205.01
-210.61
-199.89
-174.92
-141.03
-105.14
-73.57
-50.08
-35.22
-27.12
-23.05
-20.93
-20.07
-20.92
-24.34
-30.83
-40.23
-51.63
-63.62
-74.47
-82.46
-86.39
-86.06
-82.55
-77.89
-74.02
-71.67
-69.54
-64.49
-52.72
-31.44
-0.17
38.99
82.16
125.06
164.18
197.16
222.50
239.07
245.89
242.49
229.43
208.45
182.15
153.13
123.30
93.55
64.04
34.57
5.04
-24.51
-53.82
-82.24
-108.46
-130.47
-145.82
-152.44
-149.67
-138.90
-123.35
-107.15
-93.94
-85.76
-82.72
-83.47
-86.08
-88.93
-91.12
-92.19
-91.74
-89.14
-83.73
-75.47
-65.47
-56.04
-49.90
-49.01
-53.46
-61.19
-68.72
-72.44
-69.90
-60.47
-45.19
-25.98
-4.76
17.17
39.26
61.42
83.51
105.02
124.92
141.89
154.89
163.55
168.49
171.13
173.14
175.81
179.54
183.68
186.71
186.62
181.30
169.04
148.98
121.67
89.35
55.75
25.25
1.58
-13.27
-19.72
-20.18
-18.11
-16.81
-18.50
-24.04
-33.14
-44.80
-57.65
-70.19
-81.01
-89.03
-93.85
-95.95
-96.72
-98.15
-102.32
-110.89
-124.64
-143.23
-165.12
-187.69
-207.66
-221.61
-226.64
-220.79
-203.32
-174.79
-137.01
-92.97
-46.59
-2.21
36.30
66.52
88.18
103.15
114.71
126.25
139.98
156.29
173.89
190.49
203.81
212.18
214.81
211.63
202.90
189.14
171.15
150.33
128.68
108.60
92.20
80.58
73.54
69.61
66.86
63.58
58.71
51.82
42.55
30.24
14.05
-6.38
-30.11
-54.55
-76.03
-91.12
-98.19
-98.32
-95.09
-93.08
-95.93
-104.83
-118.09
-132.01
-142.58
-146.99
-144.48
-136.01
-123.48
-108.69
-92.88
-76.67
-60.49
-44.94
-30.86
-19.26
-10.95
-6.23
-4.74
-5.46
-6.88
-7.42
-5.77
-1.22
6.10
15.36
25.21
34.15
40.94
44.97
46.54
46.88
47.89
51.51
59.09
70.86
85.87
102.32
118.10
131.17
139.71
142.20
137.43
124.85
104.98
79.61
51.54
23.71
-1.75
-24.13
-44.06
-62.76
-81.19
-99.56
-117.42
-134.06
-148.87
-161.35
-170.88
-176.44
-176.72
-170.62
-157.94
-139.79
-118.34
-96.19
-75.58
-57.92
-43.84
-33.67
-27.78
-26.60
-30.10
-37.27
-45.93
-53.18
-56.39
-54.24
-47.22
-37.39
-27.41
-19.40
-14.21
-11.25
-8.85
-4.93
2.40
14.43
31.68
53.88
80.01
108.48
137.29
164.37
187.81
206.05
217.98
222.91
220.55
211.01
194.74
172.57
145.65
115.45
83.56
51.27
19.20
-12.99
-46.38
-81.88
-119.16
-155.82
-187.52
-209.17
-216.69
-208.63
-186.83
-155.68
-120.53
-86.08
-55.27
-29.38
-8.78
6.18
14.80
16.33
10.60
-1.33
-17.13
-33.69
-47.87
-57.34
-61.06
-59.41
-54.03
-47.36
-42.06
-40.15
-42.23
-46.92
-50.89
-49.75
-39.42
-17.51
15.81
57.92
104.60
151.25
193.86
229.51
256.48
274.11
282.74
283.68
279.05
271.30
262.49
253.55
244.03
232.26
216.13
193.96
165.00
129.55
88.76
44.51
-0.56
-42.90
-78.35
-102.99
-114.32
-112.38
-100.02
-82.08
-63.67
-48.54
-38.04
-31.54
-27.71
-26.03
-27.36
-33.38
-45.13
-61.74
-80.21
-96.59
-107.83
-113.28
-115.18
-117.40
-123.65
-135.55
-151.96
-169.25
-182.66
-187.78
-181.62
-163.36
-134.27
-97.41
-56.91
-17.03
18.77
48.52
71.97
90.32
105.46
119.15
132.38
145.27
157.48
168.73
179.20
189.30
198.97
207.04
211.13
208.39
196.71
175.71
146.97
113.15
76.98
40.56
5.56
-25.93
-51.01
-66.40
-69.99
-62.35
-47.25
-30.59
-17.93
-12.24
-12.86
-16.34
-18.57
-17.14
-12.42
-7.15
-4.82
-7.92
-17.01
-31.00
-48.13
-66.91
-86.36
-105.44
-122.37
-134.47
-138.86
-133.85
-119.97
-100.11
-78.55
-59.26
-44.49
-34.44
-27.84
-23.19
-19.64
-17.18
-16.12
-16.35
-16.95
-16.31
-12.86
-5.77
4.62
16.80
28.70
38.40
44.73
47.60
47.92
47.25
47.16
48.72
52.15
56.88
61.96
66.66
70.90
75.24
80.35
86.22
91.60
94.04
90.76
79.77
60.84
35.56
6.61
-23.38
-52.60
-80.18
-105.66
-128.32
-146.98
-160.22
-167.00
-167.18
-161.58
-151.67
-138.96
-124.60
-109.34
-93.67
-78.13
-63.44
-50.58
-40.65
-34.84
-34.19
-39.40
-50.40
-65.88
-83.04
-97.84
-105.76
-103.12
-88.39
-62.85
-30.31
4.18
35.94
62.04
81.96
97.32
111.00
126.13
145.18
169.28
197.79
228.37
257.36
280.77
295.32
299.10
291.76
274.13
247.71
214.46
176.79
137.55
99.81
66.18
38.07
15.26
-3.90
-21.86
-40.94
-62.54
-86.79
-112.30
-136.45
-155.70
-166.51
-166.41
-155.08
-134.63
-109.05
-82.88
-59.79
-41.65
-28.68
-20.24
-15.68
-14.88
-17.99
-24.84
-34.53
-45.36
-55.42
-63.19
-68.12
-70.56
-71.43
-71.78
-72.38
-73.64
-75.57
-77.68
-78.94
-77.72
-72.01
-59.82
-39.96
-12.59
20.57
56.45
91.37
121.86
145.26
159.96
165.42
162.04
151.12
134.88
116.25
98.28
83.20
71.37
60.93
48.38
30.21
4.81
-26.28
-58.71
-87.18
-107.82
-119.90
-125.59
-128.17
-129.62
-129.31
-124.44
-112.19
-92.06
-66.95
-42.33
-24.03
-15.74
-17.73
-27.26
-40.26
-53.13
-64.00
-72.83
-80.61
-88.50
-97.05
-106.05
-114.63
-121.60
-125.65
-125.45
-119.83
-108.00
-89.91
-66.46
-39.47
-11.30
15.90
40.76
62.93
82.83
101.08
117.90
133.01
145.88
156.20
164.23
170.58
175.73
179.42
180.47
177.11
167.75
151.80
129.99
104.27
77.24
51.41
28.79
10.61
-2.65
-11.08
-15.31
-16.50
-16.39
-16.97
-20.09
-26.75
-36.64
-48.19
-59.19
-67.76
-73.15
-75.97
-77.71
-79.92
-83.55
-88.81
-95.56
-103.77
-113.65
-125.24
-137.81
-149.50
-157.70
-159.90
-154.73
-142.55
-125.27
-105.50
-85.64
-67.22
-50.86
-36.74
-24.97
-15.83
-9.43
-5.19
-1.63
3.34
11.59
23.84
39.18
55.33
69.53
79.57
84.60
85.25
83.28
81.10
81.26
86.01
96.91
114.27
136.81
161.70
185.07
203.06
212.84
213.09
204.07
186.99
163.47
135.11
103.42
70.03
36.78
5.77
-21.00
-42.09
-57.10
-67.06
-74.29
-81.77
-91.97
-105.71
-121.53
-136.13
-145.78
-147.95
-142.45
-131.29
-117.56
-103.92
-91.61
-80.59
-70.48
-61.41
-54.43
-50.92
-51.55
-55.62
-61.06
-65.30
-66.27
-63.19
-56.49
-47.32
-36.92
-26.22
-15.82
-6.18
2.49
10.45
18.73
29.11
43.59
63.33
87.86
114.73
140.04
159.65
170.40
170.97
161.91
145.13
123.14
98.59
73.87
51.07
31.61
16.08
3.96
-6.13
-15.98
-27.13
-40.40
-55.66
-71.96
-87.90
-101.82
-112.09
-117.36
-116.94
-110.95
-100.46
-87.30
-73.52
-60.99
-50.97
-44.12
-40.60
-40.35
-43.16
-48.67
-56.32
-65.25
-74.37
-82.50
-88.62
-92.10
-93.00
-92.12
-90.75
-90.15
-90.71
-91.26
-89.00
-80.12
-61.20
-30.69
10.22
57.73
106.72
152.35
191.40
222.57
245.94
261.99
270.83
272.11
265.50
251.34
230.94
206.35
179.68
152.49
125.31
97.79
69.20
38.90
6.75
-26.72
-60.38
-92.68
-121.74
-145.47
-161.85
-169.32
-167.26
-156.33
-138.56
-117.03
-95.23
-76.29
-62.37
-54.34
-51.88
-53.84
-58.76
-65.32
-72.55
-79.80
-86.59
-92.35
-96.39
-98.07
-97.03
-93.36
-87.44
-79.53
-69.43
-56.53
-40.15
-20.19
2.56
26.49
49.84
71.37
90.66
107.87
123.06
135.80
145.13
150.17
150.66
147.21
140.95
132.73
122.77
110.62
95.75
78.02
57.89
36.07
13.24
-10.02
-32.87
-53.80
-70.63
-81.06
-83.77
-79.16
-69.45
-57.87
-47.49
-40.22
-36.64
-36.39
-39.00
-44.35
-52.61
-63.78
-77.16
-91.14
-103.57
-112.51
-117.04
-117.76
-116.70
-116.60
-119.84
-127.33
-137.96
-148.70
-155.42
-154.14
-142.10
-118.43
-84.14
-41.72
5.54
53.94
99.81
139.72
170.96
192.05
203.15
206.08
203.79
199.57
196.14
195.05
196.61
199.90
203.11
203.84
199.46
187.65
167.14
138.36
103.69
67.07
33.10
5.89
-11.72
-18.47
-14.62
-1.67
17.73
39.89
60.29
74.13
77.43
68.16
47.09
17.93
-13.59
-41.45
-61.22
-71.40
-73.60
-71.68
-70.06
-72.12
-79.19
-90.56
-104.07
-117.02
-126.93
-132.02
-131.41
-125.22
-114.40
-100.22
-83.62
-64.71
-43.03
-18.44
7.75
32.28
50.65
58.86
55.38
42.09
23.72
5.83
-7.25
-13.76
-14.52
-11.79
-8.09
-5.38
-4.95
-7.44
-12.91
-20.51
-28.45
-34.25
-35.52
-30.95
-20.70
-6.27
10.32
27.20
42.90
56.05
64.90
67.35
61.45
46.43
23.39
-4.66
-33.59
-59.31
-78.88
-91.16
-96.98
-99.02
-101.13
-107.18
-119.50
-137.71
-158.30
-175.91
-185.49
-184.54
-174.15
-158.27
-141.65
-127.64
-117.14
-109.01
-101.61
-94.15
-87.27
-82.53
-81.30
-83.88
-89.31
-95.79
-101.43
-104.86
-105.50
-103.42
-98.94
-92.17
-82.75
-69.66
-51.40
-26.43
6.33
47.01
94.53
146.68
200.59
253.47
303.48
349.98
393.19
433.07
468.17
495.40
510.80
511.35
496.56
469.14
434.03
396.49
360.00
325.32
290.75
253.37
210.58
161.40
107.10
51.41
-0.09
-41.15
-66.60
-74.18
-65.55
-46.16
-23.83
-6.69
-1.10
-10.37
-34.47
-70.58
-114.20
-160.37
-204.78
-244.44
-277.70
-303.92
-322.94
-334.65
-339.23
-337.41
-330.49
-319.81
-305.73
-287.05
-261.52
-227.43
-185.53
-139.85
-96.60
-61.50
-37.07
-21.34
-8.89
6.48
28.91
59.08
94.70
132.43
169.56
204.65
236.92
265.36
288.42
304.69
313.95
317.76
318.95
320.54
324.52
331.36
340.18
349.41
357.22
361.71
360.96
353.25
337.64
314.45
285.39
253.08
219.97
187.46
155.65
123.89
91.54
58.68
26.13
-5.08
-34.31
-61.77
-88.43
-115.52
-143.96
-173.94
-204.87
-235.90
-266.50
-296.84
-327.62
-359.62
-393.05
-427.29
-460.95
-492.00
-517.96
-535.94
-542.81
-535.85
-513.67
-477.09
-429.37
-375.47
-320.46
-268.07
-219.84
-175.63
-134.75
-97.09
-63.51
-35.44
-14.24
-0.78
4.48
1.44
-9.62
-27.67
-50.60
-75.53
-99.65
-121.28
-140.24
-157.24
-172.54
-184.80
-191.08
-187.99
-173.38
-147.43
-112.52
-71.90
-28.57
15.27
57.31
93.91
119.60
128.15
115.11
80.60
30.73
-23.57
-70.02
-99.30
-108.22
-100.23
-83.03
-64.58
-49.62
-38.06
-25.79
-6.89
23.56
67.36
121.95
180.57
233.55
270.63
283.87
270.35
233.48
182.21
128.20
82.09
50.30
33.89
29.57
32.21
37.48
43.37
50.31
60.07
74.36
93.82
117.53
143.09
167.10
185.74
195.42
193.58
179.67
155.69
126.09
96.69
73.17
59.59
57.59
66.28
82.90
103.70
124.62
141.97
153.08
156.80
154.06
147.72
141.80
140.22
145.28
156.94
172.95
189.97
205.00
216.37
223.86
227.91
228.58
224.88
214.98
197.23
171.36
139.09
103.71
68.76
36.68
7.81
-19.44
-47.68
-79.57
-117.25
-162.26
-215.36
-275.87
-340.82
-404.34
-458.51
-495.38
-509.56
-500.08
-470.29
-425.88
-372.26
-313.03
-250.29
-186.43
-125.73
-74.30
-38.17
-20.46
-19.60
-29.77
-43.44
-54.57
-60.71
-63.21
-65.58
-70.98
-80.49
-92.62
-104.20
-111.78
-112.81
-106.15
-92.00
-71.33
-45.48
-15.79
16.20
48.58
79.00
104.82
123.72
134.50
137.74
135.91
132.83
132.51
137.79
149.25
164.83
180.47
191.54
194.60
188.68
175.73
159.98
146.66
140.44
144.18
158.48
181.84
211.25
243.00
273.25
298.49
315.79
322.93
318.57
302.44
275.52
240.12
199.71
158.27
119.36
85.31
56.76
32.72
11.07
-10.98
-36.40
-67.77
-106.62
-152.56
-202.51
-250.68
-289.79
-313.04
-316.12
-298.43
-262.97
-215.40
-162.70
-112.06
-69.96
-41.34
-28.77
-31.95
-47.69
-70.89
-96.07
-118.97
-137.38
-151.08
-161.09
-168.79
-175.33
-181.38
-187.14
-192.20
-195.36
-194.62
-187.53
-171.79
-145.93
-109.77
-64.56
-12.65
42.95
98.94
151.98
198.88
236.82
263.85
279.38
284.46
281.63
274.20
265.27
256.89
249.65
242.74
234.41
222.57
205.52
182.55
154.32
122.87
91.15
62.25
38.52
21.02
9.49
2.65
-1.26
-3.94
-6.74
-10.53
-15.63
-21.82
-28.46
-34.82
-40.56
-45.95
-51.88
-59.43
-69.34
-81.69
-96.01
-111.63
-128.06
-145.04
-162.26
-178.92
-193.61
-204.57
-210.27
-210.05
-204.27
-194.06
-180.74
-165.29
-148.16
-129.30
-108.24
-84.16
-55.95
-22.49
16.69
60.72
106.88
150.83
187.72
213.46
226.00
225.68
214.95
197.43
176.93
156.80
139.66
127.27
120.37
118.51
119.99
122.13
121.92
116.81
105.39
87.65
64.70
38.26
10.07
-18.40
-46.04
-71.87
-95.02
-114.69
-130.39
-142.19
-151.00
-158.49
-166.78
-177.73
-192.12
-208.98
-225.61
-238.33
-243.82
-240.41
-228.79
-211.65
-192.39
-173.45
-155.19
-135.97
-113.38
-86.00
-54.66
-22.46
6.42
28.65
43.18
51.59
57.21
63.43
72.43
84.59
98.86
113.73
128.00
141.27
153.90
166.62
180.24
195.26
211.68
228.87
245.65
260.40
271.37
276.90
275.64
266.66
249.62
224.85
193.53
157.52
119.00
79.94
41.79
5.41
-28.79
-60.76
-90.72
-119.04
-145.92
-170.84
-192.06
-206.59
-211.01
-202.95
-182.60
-153.24
-120.39
-89.84
-65.57
-48.67
-37.85
-30.94
-26.59
-24.93
-26.98
-33.44
-43.61
-55.25
-65.49
-72.16
-74.72
-74.30
-72.96
-72.71
-74.87
-79.82
-87.03
-94.94
-100.91
-101.40
-92.63
-71.94
-39.00
3.57
50.71
96.35
135.10
163.44
180.09
185.72
182.44
173.29
161.67
150.69
142.38
137.14
133.73
129.85
123.07
111.54
94.33
71.45
43.81
13.21
-17.65
-45.62
-67.95
-83.28
-91.94
-95.41
-95.19
-91.68
-84.28
-72.42
-56.96
-40.84
-28.39
-23.58
-28.22
-41.21
-59.14
-78.01
-94.92
-108.93
-120.92
-132.58
-145.27
-159.16
-172.99
-184.22
-189.77
-186.91
-174.27
-152.48
-124.17
-93.13
-63.01
-35.95
-11.96
10.76
34.70
61.78
92.46
125.64
159.19
190.56
217.20
236.70
246.89
246.17
234.05
211.56
181.22
146.51
110.98
77.51
47.93
23.06
3.01
-12.49
-24.01
-32.35
-38.44
-43.23
-47.47
-51.57
-55.65
-59.59
-63.20
-66.31
-68.93
-71.32
-73.97
-77.47
-82.31
-88.71
-96.71
-106.37
-117.90
-131.44
-146.62
-162.08
-175.42
-183.73
-184.65
-177.30
-162.65
-143.03
-121.08
-98.73
-76.82
-55.18
-33.26
-10.48
13.59
39.39
67.39
97.76
129.84
161.73
190.24
211.68
222.84
222.15
210.20
189.66
164.54
139.18
117.33
101.51
92.81
90.95
94.43
100.75
106.78
109.25
105.63
94.71
76.96
54.14
28.51
1.90
-24.67
-50.78
-76.03
-99.53
-119.99
-136.34
-148.50
-157.68
-165.79
-174.41
-183.56
-191.48
-195.30
-192.40
-181.67
-164.12
-142.39
-119.76
-99.10
-82.24
-70.05
-62.77
-60.24
-61.83
-66.12
-70.63
-72.00
-66.64
-51.77
-26.24
9.04
51.23
96.15
139.10
175.68
202.51
217.83
221.87
216.91
206.83
196.19
188.89
187.11
190.72
197.51
204.13
207.22
204.19
193.62
175.21
149.63
118.46
83.93
48.70
15.30
-14.54
-40.45
-63.51
-85.80
-109.46
-135.58
-163.46
-190.42
-212.50
-225.61
-226.92
-215.74
-193.80
-164.59
-132.29
-100.63
-72.27
-48.72
-30.69
-18.52
-12.34
-11.99
-16.77
-25.36
-35.91
-46.37
-54.83
-59.85
-60.71
-57.64
-51.95
-45.84
-41.61
-40.62
-42.24
-43.40
-39.34
-25.29
1.57
40.68
87.99
137.23
181.82
216.76
239.55
250.23
250.61
243.43
231.55
217.50
203.23
189.95
178.12
167.39
156.88
145.33
131.48
114.40
93.74
69.92
44.11
17.90
-7.15
-30.02
-50.39
-68.31
-83.73
-96.16
-104.77
-108.93
-108.87
-105.96
-102.45
-100.64
-102.01
-106.70
-113.70
-121.51
-128.97
-135.71
-142.24
-149.63
-159.04
-171.11
-185.53
-200.74
-213.88
-221.32
-219.48
-205.98
-180.46
-144.93
-103.30
-60.47
-21.05
11.61
36.09
52.99
64.58
74.22
85.31
100.38
120.24
143.72
167.96
189.40
204.89
212.51
211.92
204.05
190.56
173.38
154.46
135.79
119.26
106.49
98.33
94.56
93.88
94.37
94.20
92.24
88.24
82.53
75.46
66.91
56.25
42.76
26.14
7.01
-13.17
-32.52
-49.38
-63.04
-73.97
-83.71
-94.22
-106.90
-121.88
-137.65
-151.50
-160.58
-163.00
-158.62
-149.05
-136.88
-124.69
-114.11
-105.60
-98.68
-92.67
-87.21
-82.41
-78.62
-75.82
-73.42
-70.31
-65.43
-58.29
-49.20
-38.91
-27.94
-15.99
-1.93
15.73
37.83
63.94
92.28
120.26
145.45
166.33
182.65
195.17
205.09
213.33
220.10
224.81
226.27
223.30
215.13
201.75
183.84
162.37
138.23
112.03
84.19
55.25
25.95
-2.91
-30.75
-57.41
-82.93
-107.00
-128.42
-144.99
-154.06
-153.53
-143.01
-124.43
-101.80
-80.02
-63.37
-54.24
-52.63
-56.63
-63.60
-71.25
-78.34
-84.68
-90.60
-96.26
-101.37
-105.34
-107.78
-108.98
-109.83
-111.36
-113.96
-116.89
-118.41
-116.46
-109.56
-97.52
-81.35
-62.54
-42.09
-19.85
5.08
33.47
64.81
96.82
126.01
148.96
163.76
170.63
171.55
169.12
165.32
160.78
154.80
146.15
133.81
117.68
98.65
78.33
58.56
40.96
26.55
15.72
8.29
3.67
1.07
-0.39
-1.55
-3.28
-6.36
-11.44
-18.88
-28.58
-39.90
-51.71
-62.66
-71.61
-78.00
-82.15
-85.23
-88.90
-94.80
-104.04
-116.69
-131.70
-147.04
-160.22
-168.88
-171.51
-167.84
-158.95
-146.93
-134.33
-123.40
-115.48
-110.63
-107.80
-105.35
-101.76
-96.07
-88.08
-78.01
-65.95
-51.43
-33.48
-11.22
15.34
44.71
74.03
99.85
119.43
131.84
138.39
142.19
147.17
156.71
172.76
195.21
222.00
249.49
273.34
289.37
294.61
287.98
270.48
244.87
214.77
183.69
154.07
126.90
101.56
76.11
47.79
13.80
-27.59
-75.94
-128.03
-178.06
-219.09
-245.06
-252.78
-242.89
-219.46
-188.45
-155.73
-125.61
-100.31
-80.40
-65.71
-56.04
-51.46
-52.02
-57.37
-66.31
-76.79
-86.16
-91.70
-91.39
-84.56
-72.38
-57.85
-45.02
-37.57
-37.26
-42.88
-50.40
-54.30
-49.66
-34.10
-8.56
23.27
56.53
87.01
112.21
131.39
144.82
152.98
156.25
155.09
150.47
144.09
137.83
132.88
128.96
124.10
115.44
100.30
77.35
47.12
11.75
-25.61
-61.49
-92.63
-116.36
-130.90
-135.70
-131.61
-120.62
-105.43
-88.75
-72.92
-59.63
-50.07
-44.94
-44.43
-48.04
-54.52
-62.03
-68.79
-73.62
-76.40
-78.14
-80.59
-85.70
-95.00
-108.99
-126.76
-145.88
-162.81
-173.77
-175.75
-167.35
-149.00
-122.54
-90.34
-54.52
-16.64
22.08
60.31
96.28
127.94
153.51
172.09
183.88
189.93
191.53
189.61
184.52
176.13
164.30
149.18
131.42
112.14
92.81
74.96
59.88
48.35
40.35
35.10
31.45
28.46
25.75
23.38
21.14
17.89
11.52
-0.17
-18.04
-40.69
-64.55
-85.30
-99.65
-106.75
-108.11
-106.58
-104.85
-104.59
-106.45
-110.75
-117.85
-128.08
-141.05
-155.08
-167.26
-174.36
-174.06
-165.91
-151.44
-133.42
-114.72
-97.21
-81.47
-67.07
-53.26
-39.48
-25.39
-10.40
6.74
27.94
55.02
88.57
126.98
166.30
201.18
226.44
238.82
238.02
226.64
209.15
190.28
173.71
161.36
153.52
149.31
147.28
145.87
143.47
138.50
129.52
115.54
96.34
72.77
46.63
20.23
-4.35
-25.86
-44.21
-60.41
-76.07
-92.91
-112.27
-134.72
-159.77
-185.70
-209.61
-227.88
-237.05
-234.91
-221.31
-198.46
-170.24
-141.07
-114.64
-93.23
-77.65
-67.66
-62.53
-61.24
-62.43
-64.25
-64.42
-60.77
-51.82
-37.39
-18.69
2.19
23.04
42.45
60.35
77.89
96.80
118.47
143.19
169.90
196.64
221.26
242.06
258.10
268.97
274.50
274.42
268.41
256.21
237.85
213.75
184.83
152.50
118.64
85.38
54.59
27.33
3.34
-18.98
-42.01
-68.00
-97.86
-130.48
-162.52
-189.25
-205.76
-208.68
-197.27
-173.80
-142.83
-109.84
-79.72
-55.67
-39.00
-29.53
-26.26
-27.90
-33.06
-40.24
-47.85
-54.53
-59.37
-62.10
-62.88
-62.10
-60.19
-57.67
-55.26
-53.69
-53.29
-53.32
-51.73
-45.47
-31.53
-8.22
23.91
62.11
102.36
140.69
174.26
201.59
222.10
235.43
241.21
239.36
230.75
217.53
202.65
188.78
176.89
165.69
151.91
131.77
102.71
64.66
20.29
-25.78
-68.35
-103.11
-127.46
-140.75
-143.84
-138.43
-126.49
-109.91
-90.52
-70.36
-51.74
-37.09
-28.37
-26.42
-30.50
-38.46
-47.45
-55.01
-59.85
-62.24
-63.64
-66.06
-71.33
-80.51
-93.55
-109.11
-124.58
-136.53
-141.53
-137.37
-123.99
-103.76
-80.63
-58.50
-39.42
-22.76
-5.68
15.28
42.10
74.25
108.70
141.38
168.70
188.68
201.00
206.28
205.29
198.57
186.65
170.47
151.67
132.31
114.35
99.03
86.58
76.34
67.13
57.81
47.62
36.46
24.79
13.37
2.79
-6.97
-16.66
-27.41
-40.18
-55.06
-71.06
-86.37
-99.12
-108.25
-113.91
-117.36
-120.32
-124.25
-129.87
-136.94
-144.48
-150.96
-154.67
-153.97
-147.73
-135.63
-118.45
-97.87
-76.00
-54.66
-34.95
-17.06
-0.79
13.88
26.34
35.38
39.69
38.68
33.17
25.54
19.28
17.89
23.49
36.02
53.08
70.86
85.63
95.21
99.62
100.81
101.60
104.44
110.67
120.39
132.96
147.41
162.71
177.52
189.92
197.36
197.06
186.87
165.99
135.46
97.94
56.87
15.55
-23.69
-59.67
-92.20
-121.51
-147.76
-170.80
-190.02
-204.45
-212.94
-214.39
-208.16
-194.38
-174.20
-149.67
-123.40
-97.91
-75.22
-56.58
-42.58
-33.34
-28.75
-28.42
-31.54
-36.73
-42.20
-46.18
-47.49
-46.11
-43.29
-41.04
-41.20
-44.30
-48.92
-51.86
-49.11
-37.36
-15.23
16.12
53.49
92.85
130.59
164.42
193.45
217.62
236.85
250.44
256.87
254.08
240.18
214.23
176.99
131.27
81.71
33.80
-7.44
-38.95
-60.36
-74.01
-83.79
-93.69
-106.25
-121.76
-138.34
-152.68
-161.40
-162.12
-154.24
-138.93
-118.57
-95.85
-72.92
-51.13
-31.17
-13.71
0.13
8.69
10.16
3.31
-11.89
-34.03
-60.49
-87.94
-113.04
-132.97
-145.82
-150.91
-148.86
-141.42
-130.94
-119.47
-107.84
-95.02
-78.28
-54.06
-19.58
25.85
79.94
137.71
192.73
238.81
271.55
289.25
292.82
285.14
269.98
251.08
231.49
213.18
196.85
181.79
165.93
146.15
119.19
83.07
38.29
-11.51
-60.20
-100.91
-128.33
-140.47
-139.10
-128.75
-114.78
-101.46
-91.03
-83.94
-79.86
-78.72
-80.99
-87.21
-96.99
-108.48
-118.63
-124.35
-123.89
-117.68
-108.29
-99.29
-93.85
-93.60
-98.21
-105.69
-113.15
-117.61
-116.68
-109.01
-94.54
-74.46
-50.93
-26.60
-3.90
15.48
31.00
43.37
54.20
65.55
79.24
96.25
116.41
138.42
160.19
179.44
194.15
202.76
204.14
197.59
182.99
161.24
134.69
107.11
83.02
66.45
59.67
62.34
71.65
83.28
92.80
96.87
93.86
83.74
67.63
47.28
24.71
2.22
-17.87
-33.49
-43.19
-46.54
-44.14
-37.25
-27.36
-15.84
-3.99
6.68
14.14
15.80
9.05
-7.86
-34.86
-69.63
-107.83
-144.12
-173.33
-191.58
-196.99
-189.85
-172.40
-148.24
-121.57
-96.16
-74.52
-57.30
-43.34
-30.39
-16.19
0.44
19.16
38.36
55.99
70.45
81.07
88.12
92.46
95.15
97.16
99.22
101.73
104.63
107.28
108.52
106.93
101.28
91.05
76.69
59.50
41.25
23.71
8.39
-3.58
-11.61
-15.67
-16.41
-15.12
-13.43
-13.12
-16.30
-25.70
-44.51
-75.34
-118.44
-169.93
-221.71
-263.33
-285.53
-283.68
-259.39
-219.36
-172.32
-125.85
-84.57
-50.65
-25.11
-8.98
-3.18
-7.36
-18.90
-33.00
-44.03
-47.59
-42.01
-28.67
-11.13
6.50
21.19
31.73
38.71
43.82
48.98
55.62
64.48
75.59
88.60
103.08
118.65
135.04
151.82
168.05
182.09
191.61
194.08
187.42
170.85
145.17
112.58
76.07
38.70
3.03
-29.12
-56.68
-79.25
-97.10
-111.07
-122.24
-131.36
-138.18
-141.35
-138.86
-129.15
-112.14
-89.73
-65.30
-42.58
-24.42
-12.12
-5.60
-4.15
-7.15
-14.39
-25.82
-40.90
-58.11
-75.00
-88.72
-97.02
-99.12
-96.02
-90.24
-84.73
-81.52
-80.73
-80.39
-77.22
-68.06
-51.38
-27.93
-0.40
27.70
53.58
76.00
95.35
112.82
129.35
144.77
157.82
166.76
170.41
168.78
163.06
154.97
145.72
135.30
122.39
104.99
81.45
51.35
15.96
-21.92
-58.50
-89.89
-112.79
-125.17
-126.46
-117.64
-101.00
-79.66
-57.12
-36.67
-21.11
-12.37
-11.37
-17.92
-30.61
-47.06
-64.40
-79.91
-91.69
-99.06
-102.35
-102.50
-100.54
-97.34
-93.75
-90.69
-89.02
-89.00
-89.64
-88.54
-82.39
-68.27
-44.97
-13.66
22.40
59.04
92.51
120.29
141.21
154.95
161.70
161.91
156.58
147.35
136.33
125.52
116.11
107.96
99.60
88.83
73.65
53.18
28.28
1.39
-24.21
-45.55
-60.95
-70.42
-75.19
-76.79
-76.12
-73.17
-67.37
-58.44
-47.10
-35.16
-24.92
-18.23
-15.83
-17.22
-21.27
-26.94
-33.80
-42.07
-52.24
-64.63
-79.08
-94.92
-111.10
-126.25
-138.79
-147.02
-149.38
-144.80
-132.99
-114.62
-91.13
-64.46
-36.63
-9.45
15.75
38.26
57.98
75.46
91.59
107.34
123.37
139.75
155.83
170.28
181.29
186.99
186.00
178.10
164.74
149.04
135.14
127.04
127.24
135.87
150.52
166.94
180.35
186.65
183.37
169.97
147.62
118.56
85.50
51.16
18.07
-11.56
-35.84
-53.50
-64.18
-68.74
-69.41
-69.35
-71.89
-79.50
-92.95
-110.92
-130.36
-147.47
-158.95
-163.12
-160.37
-152.92
-143.93
-136.30
-131.89
-131.00
-132.59
-134.71
-135.27
-132.57
-125.77
-114.92
-100.78
-84.32
-66.28
-46.84
-25.96
-3.90
18.16
38.05
53.32
62.46
65.98
66.56
68.17
74.50
87.56
107.06
130.92
156.21
180.13
200.45
215.34
223.15
222.29
211.62
191.02
161.75
126.34
88.01
49.79
13.82
-18.91
-48.41
-75.20
-99.78
-122.21
-141.86
-157.54
-167.77
-171.18
-167.02
-155.43
-137.62
-115.76
-92.59
-70.96
-53.31
-41.30
-35.59
-35.74
-40.25
-46.76
-52.41
-54.45
-51.01
-41.77
-28.27
-13.59
-1.57
4.43
2.59
-6.65
-20.46
-34.33
-43.23
-42.97
-31.43
-9.03
21.56
56.34
91.22
122.95
149.37
169.23
181.69
186.24
183.00
173.21
159.48
145.11
132.85
123.70
116.21
107.21
93.18
71.85
43.00
8.44
-28.74
-65.01
-96.92
-121.34
-135.76
-138.84
-130.97
-114.57
-93.64
-72.53
-54.66
-41.68
-33.55
-29.32
-28.12
-29.59
-33.74
-40.44
-49.06
-58.46
-67.48
-75.35
-81.85
-87.15
-91.36
-94.19
-95.07
-93.41
-88.99
-82.14
-73.47
-63.48
-52.15
-38.90
-22.82
-3.26
19.69
44.91
70.43
94.06
113.98
129.22
139.83
146.60
150.54
152.43
152.56
150.77
146.62
139.67
129.72
117.02
102.42
87.29
73.42
62.58
56.10
54.47
57.14
62.51
68.15
71.17
68.83
59.23
41.95
18.24
-9.10
-36.46
-60.22
-77.66
-87.43
-89.70
-85.95
-78.50
-70.09
-63.43
-60.69
-63.14
-70.74
-82.12
-94.76
-105.66
-112.11
-112.39
-106.25
-94.83
-80.10
-64.07
-48.10
-32.90
-18.78
-6.18
4.11
11.15
14.49
14.66
13.21
12.20
13.37
17.36
23.52
30.26
35.85
39.21
40.43
40.69
41.78
45.43
52.77
64.00
78.39
94.52
110.61
124.77
135.24
140.56
139.56
131.52
116.34
94.67
68.03
38.58
8.62
-19.98
-46.18
-69.82
-91.29
-111.05
-129.22
-145.53
-159.38
-170.09
-176.93
-179.21
-176.36
-168.13
-154.94
-138.04
-119.43
-101.50
-86.49
-76.08
-71.25
-72.22
-78.47
-88.62
-100.35
-110.59
-116.25
-115.15
-106.95
-93.38
-77.78
-63.80
-54.03
-48.92
-46.50
-43.05
-34.48
-17.81
7.72
40.43
76.84
112.97
145.63
173.22
195.69
213.77
228.14
238.92
245.80
248.55
247.42
243.14
236.37
227.09
214.34
196.62
172.56
141.80
105.29
65.06
23.69
-16.19
-52.16
-82.01
-103.75
-115.97
-118.38
-112.32
-100.82
-87.94
-77.66
-72.62
-73.45
-78.90
-86.54
-93.82
-98.85
-100.84
-100.18
-98.26
-97.18
-99.37
-106.99
-121.38
-142.50
-168.55
-196.02
-220.10
-235.56
-237.79
-223.85
-193.32
-148.45
-93.66
-34.36
24.34
78.65
126.44
166.97
200.10
225.90
244.39
255.74
260.59
260.07
255.59
248.41
239.30
228.27
214.69
197.46
175.41
147.78
114.71
77.62
39.28
3.28
-26.91
-48.99
-62.53
-69.03
-71.11
-71.55
-72.21
-73.81
-76.15
-78.80
-81.68
-85.07
-89.36
-94.50
-99.81
-104.21
-106.94
-108.19
-109.28
-112.31
-119.08
-130.14
-144.22
-158.42
-168.97
-172.25
-165.78
-149.01
-123.50
-92.66
-60.80
-31.98
-8.80
8.12
20.00
29.02
37.25
45.96
55.46
65.61
76.27
87.62
99.88
112.90
125.75
136.82
144.28
146.62
143.14
134.20
121.12
105.89
90.66
77.21
66.63
59.05
53.92
50.30
47.24
44.00
39.96
34.34
26.18
14.39
-1.69
-21.71
-44.00
-65.59
-83.01
-93.41
-95.67
-91.03
-82.93
-75.88
-74.06
-79.87
-93.09
-110.99
-129.17
-142.98
-148.89
-145.45
-133.53
-115.84
-95.96
-77.10
-61.19
-48.54
-38.14
-28.56
-18.74
-8.45
1.91
11.86
21.47
31.49
43.17
57.51
74.55
93.02
110.41
123.78
130.78
130.66
124.76
116.25
109.11
106.75
111.00
121.61
136.70
153.51
169.22
181.22
187.18
184.93
172.80
150.10
117.80
78.63
36.51
-4.40
-40.80
-70.86
-94.20
-111.59
-124.51
-134.89
-144.77
-155.74
-168.25
-181.13
-191.73
-196.96
-194.62
-184.57
-168.90
-151.06
-134.35
-120.85
-111.00
-103.95
-98.27
-92.30
-84.39
-72.97
-56.91
-36.10
-11.97
12.53
33.81
48.82
56.36
57.60
55.65
54.46
57.56
67.16
83.87
106.88
134.22
162.97
189.51
210.01
221.43
222.57
214.84
201.90
188.23
177.11
169.19
162.32
152.89
137.85
116.30
89.76
61.13
33.09
6.82
-18.46
-44.87
-74.79
-109.52
-148.14
-187.06
-220.49
-241.97
-246.45
-232.07
-200.88
-158.13
-110.52
-64.31
-24.00
7.91
30.58
44.25
49.95
49.42
45.04
39.54
35.41
34.29
36.66
41.83
48.31
54.19
57.59
57.17
52.53
44.42
34.54
25.05
17.81
13.83
13.22
15.64
20.92
29.41
41.76
58.18
77.65
97.45
113.57
121.95
119.85
107.01
85.68
59.64
32.48
6.30
-18.65
-43.11
-67.46
-90.91
-111.66
-128.07
-139.79
-147.90
-154.03
-158.80
-160.97
-157.82
-146.68
-126.62
-99.34
-68.67
-39.17
-14.57
3.18
13.93
18.77
19.34
17.24
13.49
8.40
1.66
-7.29
-18.76
-32.55
-47.95
-64.00
-79.66
-93.72
-104.61
-110.28
-108.55
-97.74
-77.51
-49.09
-15.05
21.43
57.34
90.22
118.09
139.17
151.85
155.15
149.44
136.87
121.11
106.24
95.23
88.93
85.80
82.66
75.94
63.19
43.92
19.87
-5.37
-27.42
-42.34
-47.88
-44.25
-34.06
-21.37
-10.21
-3.22
-1.09
-2.86
-6.82
-11.34
-15.21
-17.61
-18.08
-16.53
-13.54
-10.50
-9.30
-11.74
-18.89
-30.89
-47.06
-66.36
-87.56
-109.11
-128.75
-143.40
-149.51
-144.14
-126.05
-96.43
-58.67
-17.33
23.24
59.97
91.39
117.10
136.96
150.46
156.89
155.95
148.47
136.60
123.26
111.04
101.11
92.75
83.75
71.49
54.32
32.62
9.28
-10.92
-22.78
-22.64
-9.83
12.84
40.10
66.04
85.96
97.35
99.65
93.41
79.42
58.65
32.88
5.12
-20.69
-40.99
-54.35
-62.33
-69.00
-79.08
-95.71
-119.05
-146.08
-171.85
-191.19
-200.26
-197.39
-183.10
-159.67
-130.40
-98.90
-68.47
-41.68
-20.23
-5.01
3.78
6.54
4.27
-1.46
-8.76
-15.85
-21.38
-24.48
-24.62
-21.34
-14.34
-3.78
9.29
23.02
35.45
45.61
54.18
63.41
76.00
93.57
115.69
139.86
162.53
180.49
191.81
195.98
193.39
184.55
169.70
149.02
123.18
93.66
62.69
32.58
4.98
-19.73
-42.44
-64.81
-88.31
-113.32
-138.59
-161.34
-178.13
-185.93
-183.20
-170.38
-149.71
-124.25
-96.92
-69.72
-43.60
-19.00
3.48
22.70
37.12
45.62
48.27
46.72
43.82
42.64
45.31
52.25
62.04
72.06
79.46
82.23
79.82
73.47
65.93
60.70
61.03
68.82
83.84
103.56
123.76
139.70
147.63
145.77
134.76
117.09
96.13
75.00
55.84
39.45
25.42
12.59
-0.42
-14.73
-30.83
-48.64
-67.82
-88.07
-109.37
-131.53
-153.73
-173.89
-188.75
-194.67
-188.88
-170.69
-141.88
-106.30
-68.63
-33.20
-3.14
19.76
34.88
42.45
43.47
39.68
