1649784204.00
64.000000
-0.00
-0.00
-0.00
-0.00
-0.00
-0.00
-0.00
-0.00
-0.00
-0.00
0.00
0.01
0.01
-0.00
-0.03
-0.05
-0.05
0.00
0.13
0.36
0.66
1.01
1.37
1.72
2.06
2.40
2.79
3.24
3.80
4.42
5.06
5.66
6.20
6.68
7.15
7.68
8.31
9.14
10.09
11.04
11.88
12.56
13.14
13.76
14.65
15.96
17.91
20.32
22.90
25.38
27.58
29.57
31.68
34.32
37.81
42.54
48.15
54.10
59.83
64.97
69.58
74.14
79.34
85.71
93.76
103.00
112.62
121.73
129.77
136.75
143.30
150.75
157.77
166.64
177.95
191.79
206.97
220.57
228.25
225.36
208.53
176.87
132.76
80.05
23.07
-34.94
-92.44
-149.16
-205.23
-260.37
-313.74
-363.87
-409.83
-450.91
-486.50
-515.74
-537.23
-549.22
-549.96
-538.37
-514.21
-478.67
-433.88
-382.45
-327.02
-269.84
-212.63
-156.66
-102.95
-52.37
-5.90
35.58
71.43
101.35
125.50
144.38
158.69
169.15
176.37
180.75
182.57
182.07
179.51
175.23
169.65
163.18
156.15
148.81
141.30
133.69
126.02
118.33
110.69
103.16
95.80
88.68
81.83
75.25
68.95
62.95
57.25
51.86
46.78
42.03
37.59
33.45
29.61
26.07
22.81
19.83
17.11
14.67
12.48
10.54
8.84
7.35
6.07
4.97
4.04
3.27
2.63
2.11
1.68
1.31
0.99
0.69
0.44
0.23
0.07
-0.04
-0.10
-0.14
-0.19
-0.26
-0.35
-0.44
-0.51
-0.54
-0.52
-0.46
-0.41
-0.41
-0.49
-0.66
-0.86
-1.04
-1.14
-1.13
-1.04
-0.96
-1.00
-1.23
-1.64
-2.15
-2.60
-2.84
-2.82
-2.63
-2.46
-2.54
-3.02
-3.89
-4.94
-5.87
-6.38
-6.38
-6.00
-5.60
-5.59
-6.24
-7.53
-9.14
-10.60
-11.47
-11.57
-11.07
-10.33
-9.83
-9.95
-10.94
-12.92
-15.75
-18.83
-21.01
-20.77
-16.75
-8.52
3.02
15.82
27.40
35.96
40.99
43.29
44.24
44.95
45.65
45.74
44.40
41.08
35.87
29.36
22.53
16.14
10.90
7.39
5.97
6.64
9.02
12.26
15.28
17.02
16.67
14.05
9.42
3.52
-2.73
-8.38
-12.65
-15.10
-15.70
-14.86
-13.26
-11.68
-10.77
-10.84
-11.79
-13.22
-14.60
-15.47
-15.61
-15.09
-14.16
-13.09
-12.15
-11.50
-11.28
-11.55
-12.35
-13.60
-15.03
-16.07
-15.93
-13.72
-8.90
-1.52
7.57
16.92
24.91
30.27
32.55
32.23
30.42
28.27
26.49
25.21
24.10
22.82
21.13
19.22
17.51
16.30
15.66
15.32
14.81
13.64
12.09
10.29
8.36
6.32
4.07
1.52
-1.35
-4.46
-7.69
-11.04
-14.74
-19.08
-24.23
-29.97
-35.58
-39.83
-41.25
-38.59
-31.20
-19.50
-4.84
10.84
25.52
37.72
46.74
52.75
56.45
58.68
60.02
60.75
60.93
60.57
59.71
58.37
56.47
53.70
49.67
43.99
36.63
28.01
18.94
10.37
3.03
-2.79
-7.32
-11.13
-14.93
-19.28
-24.49
-30.67
-37.73
-45.42
-53.21
-60.21
-65.15
-66.62
-63.50
-55.36
-42.73
-26.98
-9.99
6.43
20.92
32.79
41.88
48.38
52.47
54.31
54.05
51.96
48.49
44.27
39.98
36.16
33.08
30.68
28.60
26.34
23.49
19.89
15.76
11.55
7.84
5.03
3.21
2.05
0.99
-0.71
-3.61
-7.94
-13.42
-19.16
-23.77
-25.62
-23.35
-16.21
-4.47
10.67
27.46
44.24
59.83
73.73
85.87
96.21
104.39
109.76
111.55
109.25
102.79
92.61
79.48
64.28
47.86
30.93
14.14
-1.94
-16.84
-30.26
-42.17
-52.78
-62.43
-71.52
-80.43
-89.47
-99.00
-109.35
-120.76
-133.16
-145.94
-157.76
-166.73
-170.79
-168.48
-159.44
-144.76
-126.78
-108.35
-92.04
-79.42
-70.83
-65.70
-63.08
-62.13
-62.41
-63.69
-65.74
-68.11
-70.11
-71.08
-70.61
-68.68
-65.58
-61.57
-56.67
-50.65
-43.21
-34.44
-25.12
-16.80
-11.50
-11.13
-16.92
-28.96
-46.10
-66.30
-86.95
-105.36
-119.09
-126.32
-126.03
-118.25
-104.03
-85.27
-64.19
-42.83
-22.69
-4.65
10.78
23.27
32.47
38.10
40.21
39.23
35.89
31.04
25.30
18.99
12.20
4.97
-2.44
-9.49
-15.37
-19.20
-20.22
-18.05
-12.90
-5.54
2.67
10.12
15.29
17.17
15.73
12.02
8.02
6.16
8.54
16.18
28.65
44.28
60.67
75.52
87.24
95.10
99.09
99.51
96.64
90.74
82.22
71.79
60.54
49.68
40.27
32.87
27.44
23.40
19.89
16.12
11.48
5.79
-0.75
-7.65
-14.17
-19.52
-23.00
-24.23
-23.27
-20.60
-16.92
-12.84
-8.57
-3.66
2.88
12.20
25.18
42.04
62.35
85.07
108.57
130.87
149.75
163.24
170.16
170.50
165.62
157.83
149.80
143.84
141.68
144.58
153.81
170.71
196.25
229.85
268.54
306.97
338.80
358.78
364.68
358.07
343.37
325.91
309.80
296.75
286.34
277.22
268.40
259.80
251.95
245.22
239.24
232.90
224.95
214.66
202.24
188.72
175.50
163.68
153.63
144.89
136.50
127.44
117.16
105.74
93.86
82.43
72.14
63.22
55.32
47.78
39.83
31.04
21.45
11.54
1.92
-6.86
-14.70
-21.97
-29.39
-37.85
-48.00
-60.09
-73.89
-88.92
-104.64
-120.86
-137.79
-156.08
-176.50
-199.62
-225.46
-253.46
-282.56
-311.62
-339.74
-366.53
-392.17
-417.40
-443.39
-471.50
-502.86
-537.55
-574.02
-608.81
-637.15
-654.28
-657.21
-645.82
-622.78
-592.31
-558.33
-523.11
-487.00
-449.19
-408.88
-366.12
-321.90
-277.73
-235.04
-195.04
-158.61
-126.49
-99.19
-76.95
-59.69
-47.09
-38.85
-34.81
-34.90
-38.76
-45.58
-53.95
-62.21
-68.78
-72.49
-72.68
-69.18
-62.24
-52.72
-42.21
-32.84
-26.66
-24.74
-26.58
-30.31
-33.69
-35.26
-34.92
-33.53
-31.69
-28.77
-22.82
-11.53
6.45
30.59
58.69
88.01
116.41
142.79
166.68
187.41
203.62
213.49
215.63
209.82
197.36
180.63
162.34
144.70
128.91
115.07
102.42
90.05
77.44
64.89
53.34
43.76
36.44
30.44
23.67
13.59
-1.53
-21.55
-43.93
-64.24
-77.42
-79.34
-68.08
-44.24
-10.40
29.79
72.42
113.49
148.70
173.48
183.73
177.27
155.41
123.20
88.17
57.77
36.70
25.67
22.01
21.69
21.40
19.66
16.41
11.87
5.71
-2.80
-13.93
-26.77
-39.52
-50.67
-60.34
-70.73
-85.04
-105.41
-131.12
-158.31
-181.34
-195.26
-197.81
-190.04
-175.29
-157.25
-138.28
-118.91
-98.48
-76.41
-53.16
-30.49
-10.84
3.60
11.77
14.07
12.27
8.86
6.33
6.47
10.07
16.86
25.84
35.75
45.52
54.45
62.12
68.11
71.73
72.13
68.54
60.69
48.87
33.55
14.94
-7.45
-34.43
-66.24
-101.40
-136.38
-166.21
-186.07
-193.05
-187.17
-171.28
-149.96
-127.94
-108.70
-93.79
-82.73
-73.44
-63.08
-49.01
-29.71
-5.35
22.12
49.68
74.40
94.44
109.69
121.46
131.65
141.84
152.67
163.81
174.23
182.77
188.52
191.30
191.92
192.37
195.64
205.11
223.62
252.32
289.96
333.00
376.33
414.61
443.48
460.34
464.48
456.78
439.05
413.37
381.52
344.79
304.11
260.52
215.82
172.95
135.84
108.52
93.66
91.38
98.70
110.43
120.93
126.23
125.20
119.39
111.64
104.35
98.40
93.33
88.48
84.11
81.73
83.34
90.15
101.53
115.13
127.69
136.28
139.11
135.63
126.17
111.48
92.52
70.51
47.00
23.63
1.83
-17.75
-35.38
-52.13
-69.71
-90.18
-115.90
-149.21
-191.68
-242.92
-299.55
-355.13
-401.74
-432.48
-444.12
-438.09
-419.47
-394.38
-367.40
-340.38
-313.15
-285.25
-257.32
-231.17
-208.66
-190.26
-174.63
-159.35
-142.51
-123.95
-105.34
-89.32
-77.88
-71.06
-66.79
-61.80
-53.26
-40.16
-23.78
-7.12
6.62
15.37
18.91
18.66
16.83
15.50
16.09
19.27
25.24
33.89
45.03
58.54
74.66
94.11
118.15
148.07
184.33
225.66
268.61
308.08
338.55
355.70
357.64
345.08
320.45
286.56
245.63
199.36
149.81
100.69
57.58
26.68
12.24
14.71
30.37
52.89
75.94
95.11
108.70
116.54
118.26
111.98
95.07
65.98
26.38
-18.19
-59.90
-90.55
-104.01
-97.52
-72.53
-33.65
12.80
59.95
100.95
128.78
138.48
128.78
103.75
70.74
39.79
20.75
20.06
37.97
66.19
92.99
107.80
105.73
84.74
46.62
-4.46
-62.82
-122.37
-179.68
-229.59
-265.79
-281.57
-279.32
-268.20
-261.56
-271.59
-305.57
-367.02
-449.86
-539.63
-615.93
-666.52
-686.41
-678.62
-650.87
-588.33
-491.71
-376.43
-283.40
-216.45
-170.34
-132.58
-97.48
-62.24
-26.58
4.55
28.02
44.27
59.33
74.96
94.96
122.00
157.08
197.87
237.16
269.80
294.97
317.66
340.58
370.08
411.26
466.33
533.17
605.07
675.81
740.71
796.94
810.17
755.85
632.90
468.53
300.64
156.10
45.02
-34.78
-90.21
-129.56
-153.99
-163.61
-160.27
-150.21
-142.71
-145.83
-163.94
-196.96
-241.81
-289.90
-327.57
-345.23
-339.81
-314.90
-278.44
-239.80
-206.79
-183.15
-165.57
-147.69
-124.83
-96.64
-66.79
-40.19
-20.34
-7.92
-1.24
3.41
8.95
15.73
22.05
25.65
25.42
21.95
17.04
12.80
11.49
14.75
23.17
36.58
54.28
75.32
98.54
122.47
145.45
165.66
181.37
191.11
194.17
190.78
182.28
170.86
159.05
149.17
142.66
139.83
139.77
140.70
140.52
137.32
129.69
116.83
98.45
74.71
46.26
14.34
-19.06
-51.36
-79.67
-101.40
-114.71
-118.84
-114.02
-101.11
-81.13
-55.01
-23.38
13.16
53.74
96.81
139.97
180.01
213.40
237.02
248.94
248.91
238.49
220.57
198.56
175.55
153.57
133.44
114.93
97.34
79.99
62.65
45.49
28.94
13.21
-1.99
-17.50
-34.56
-54.37
-77.65
-104.37
-133.76
-164.78
-196.51
-228.65
-261.60
-296.29
-334.05
-376.49
-425.34
-481.79
-545.39
-612.78
-677.38
-730.52
-764.03
-773.22
-758.72
-726.15
-683.74
-639.18
-597.31
-559.63
-525.52
-493.91
-464.47
-437.52
-413.25
-391.00
-369.29
-346.44
-321.56
-294.92
-267.89
-242.25
-219.34
-199.44
-181.78
-164.92
-147.38
-128.33
-107.80
-86.66
-66.11
-47.15
-30.15
-14.84
-0.44
13.89
28.68
43.96
59.23
73.76
86.90
98.35
108.26
117.22
125.99
135.24
145.35
156.33
167.90
179.70
191.43
203.02
214.54
226.09
237.72
249.40
261.26
273.60
286.77
300.69
314.37
325.70
331.94
330.59
320.49
302.20
277.80
250.07
221.66
194.63
170.61
150.96
136.92
129.19
127.46
130.19
134.93
139.19
141.26
140.68
138.11
134.71
131.51
129.02
127.17
125.55
123.73
121.47
118.72
115.52
111.79
107.34
101.86
95.19
87.50
79.30
71.30
64.12
57.97
52.55
47.13
40.81
32.89
23.15
12.11
1.02
-8.23
-13.62
-13.54
-7.34
4.39
19.98
37.29
54.39
70.08
83.91
95.85
105.78
113.36
118.02
119.53
118.34
115.72
113.33
112.65
114.28
117.66
121.18
122.84
120.88
114.40
103.54
89.37
73.43
57.34
42.40
29.48
18.94
10.74
4.50
-0.31
-4.09
-6.85
-8.09
-6.85
-2.13
6.65
19.17
34.16
49.67
63.70
74.82
82.48
87.05
89.40
90.47
90.85
90.74
89.98
88.24
85.16
80.32
73.32
63.74
51.22
35.67
17.40
-2.84
-23.95
-44.69
-63.99
-81.13
-95.76
-107.71
-116.75
-122.35
-123.69
-120.02
-110.96
-96.82
-78.58
-57.62
-35.20
-12.23
10.75
33.32
54.81
74.10
89.81
100.70
106.25
106.85
103.62
97.78
90.22
81.31
71.15
60.10
49.03
39.18
31.66
26.88
24.39
23.05
21.59
19.13
15.45
10.92
6.26
2.26
-0.39
-1.29
-0.47
1.50
3.63
4.79
4.12
1.40
-2.93
-7.89
-12.25
-14.74
-13.97
-8.47
3.24
22.36
49.53
84.51
125.74
170.29
213.95
251.78
279.05
292.29
290.08
273.23
244.44
207.78
168.15
130.91
101.14
82.58
76.26
79.62
86.79
90.56
85.07
68.16
41.88
11.17
-18.77
-44.70
-66.18
-84.72
-102.17
-119.25
-135.05
-147.57
-154.95
-156.45
-152.99
-146.85
-140.68
-136.66
-135.68
-137.27
-140.06
-142.69
-144.58
-146.31
-149.18
-154.46
-162.60
-172.85
-183.42
-192.12
-197.20
-198.14
-195.80
-192.12
-189.13
-188.62
-191.70
-198.44
-207.80
-217.67
-225.15
-226.93
-219.94
-201.87
-172.87
-135.99
-96.38
-59.43
-28.83
-5.56
12.07
27.24
43.70
63.35
85.74
109.03
131.40
151.92
170.32
186.54
200.32
212.05
221.48
227.82
230.13
227.96
221.49
211.34
198.40
178.03
150.80
122.16
98.82
84.40
78.59
79.28
84.43
92.73
102.50
113.64
125.47
136.11
143.66
147.22
147.06
143.69
136.79
128.19
118.89
108.81
96.31
79.84
59.14
35.42
10.49
-14.04
-37.01
-57.53
-75.31
-92.71
-111.57
-131.74
-150.96
-166.68
-177.22
-181.96
-181.07
-175.21
-169.91
-169.37
-174.11
-180.90
-186.14
-187.81
-185.64
-180.39
-173.06
-171.78
-182.28
-204.40
-232.08
-259.02
-281.54
-299.00
-312.42
-323.30
-342.51
-377.89
-429.79
-490.89
-553.68
-613.92
-671.18
-726.67
-722.94
-630.24
-460.92
-261.57
-75.89
74.66
188.63
272.93
336.59
387.35
421.64
436.83
430.33
414.17
399.29
391.92
393.10
401.74
415.94
426.58
426.78
415.35
397.12
376.00
358.78
346.55
338.60
333.64
325.99
311.58
290.12
265.59
241.71
220.86
203.10
188.10
175.46
162.67
147.93
131.17
114.38
99.34
87.28
78.23
72.21
69.19
68.10
67.70
66.96
65.39
62.41
57.59
50.39
40.83
29.15
15.42
-0.70
-20.02
-43.39
-71.45
-104.04
-140.24
-178.49
-217.08
-254.70
-290.84
-325.62
-359.56
-393.43
-428.23
-465.10
-504.54
-545.14
-582.76
-610.57
-621.00
-608.58
-572.42
-516.95
-450.31
-381.46
-317.55
-262.84
-219.42
-188.35
-170.32
-165.11
-170.36
-181.10
-190.74
-193.05
-184.24
-164.22
-136.20
-105.65
-78.60
-60.30
-54.32
-62.21
-83.35
-115.31
-154.30
-195.87
-235.46
-269.05
-293.61
-307.40
-310.22
-303.32
-289.00
-269.92
-248.49
-226.30
-204.15
-182.23
-160.44
-138.71
-117.05
-95.68
-74.84
-54.84
-35.86
-17.97
-1.05
15.07
30.56
45.44
59.56
72.67
84.65
95.57
105.77
115.76
125.97
136.56
147.33
157.74
167.29
175.77
183.52
191.31
200.13
210.74
223.31
237.54
252.84
268.67
284.70
300.73
316.49
331.73
346.54
361.67
378.46
397.89
419.53
440.72
457.07
464.21
459.77
444.72
422.94
399.35
377.69
359.17
342.63
325.98
307.79
287.95
267.34
246.96
227.10
207.36
187.20
166.62
146.35
127.60
111.42
98.19
87.39
78.01
68.97
59.66
50.11
40.87
32.58
25.58
19.73
14.42
8.92
2.60
-4.83
-13.26
-22.19
-30.76
-37.88
-42.40
-43.44
-40.70
-34.62
-26.31
-17.21
-8.64
-1.41
4.25
8.55
11.82
14.27
15.97
16.87
16.96
16.32
15.13
13.64
12.12
10.80
9.84
9.20
8.71
8.08
7.03
5.39
3.16
0.55
-2.21
-4.94
-7.62
-10.46
-13.79
-18.03
-23.51
-30.35
-38.37
-46.91
-54.93
-61.14
-64.31
-63.58
-58.82
-50.71
-40.54
-29.93
-20.36
-12.82
-7.76
-5.24
-5.13
-7.33
-11.66
-17.80
-25.08
-32.56
-39.23
-44.39
-47.89
-50.11
-51.73
-53.40
-55.39
-57.58
-59.49
-60.55
-60.31
-58.61
-55.60
-51.69
-47.51
-43.65
-40.63
-38.71
-37.94
-38.11
-38.81
-39.47
-39.52
-38.47
-36.05
-32.27
-27.40
-21.84
-15.95
-10.09
-4.59
0.09
3.32
4.48
3.22
-0.23
-4.95
-9.53
-12.56
-13.27
-11.81
-9.30
-7.43
-7.76
-11.06
-16.91
-23.62
-28.62
-29.20
-23.62
-12.41
0.87
10.00
7.55
-12.84
-54.13
-114.56
-187.77
-264.40
-334.63
-390.61
-428.02
-446.47
-448.72
-439.30
-423.06
-404.09
-385.24
-368.08
-353.28
-340.80
-330.16
-320.44
-310.35
-298.55
-284.12
-267.05
-248.21
-229.03
-210.89
-194.54
-179.86
-166.07
-152.18
-137.54
-122.12
-106.52
-91.68
-78.45
-67.22
-57.83
-49.66
-41.92
-34.02
-25.66
-16.89
-7.98
0.75
9.16
17.21
25.02
32.64
40.03
47.05
53.54
59.39
64.59
69.22
73.27
76.57
78.80
79.50
78.36
75.37
70.94
65.78
60.64
55.96
51.74
47.45
42.40
36.18
29.01
21.96
16.65
14.79
17.62
25.50
38.08
54.57
74.37
97.50
124.65
156.97
195.74
242.12
296.76
359.30
427.52
496.83
560.53
611.12
642.47
651.97
641.43
616.36
583.78
549.65
517.14
486.49
455.99
423.65
388.16
349.19
306.85
261.14
211.83
158.88
103.12
46.68
-7.19
-55.06
-94.58
-125.40
-149.33
-169.61
-189.60
-211.50
-235.72
-260.99
-285.16
-306.02
-321.92
-331.90
-335.51
-332.59
-323.25
-307.86
-287.18
-262.40
-235.00
-206.56
-178.48
-151.81
-127.18
-104.83
-84.75
-66.86
-51.08
-37.37
-25.67
-15.81
-7.45
-0.10
6.76
13.56
20.40
27.02
32.86
37.23
39.68
40.17
39.20
37.63
36.48
36.50
38.01
40.72
43.88
46.40
47.15
45.20
40.18
32.60
24.05
16.90
13.69
16.25
24.90
38.32
53.97
69.07
81.49
90.39
96.09
99.56
101.77
103.28
104.19
104.39
103.77
102.45
100.66
98.60
96.38
93.92
91.13
87.98
84.65
81.40
78.42
75.59
72.34
67.86
61.38
52.58
41.80
29.90
17.93
6.62
-3.94
-14.40
-25.96
-40.07
-57.94
-79.98
-105.18
-130.75
-152.26
-164.64
-163.74
-147.97
-119.13
-81.98
-42.63
-6.45
23.46
46.64
64.49
78.82
90.72
100.14
106.30
108.49
106.65
101.60
94.76
87.65
81.40
76.49
72.61
68.86
63.94
56.49
45.48
30.47
12.04
-8.04
-26.64
-39.69
-43.06
-34.07
-12.96
16.33
46.59
69.33
77.39
67.36
40.53
2.05
-41.29
-83.51
-120.87
-152.05
-176.91
-195.35
-206.55
-209.40
-203.39
-189.38
-169.62
-146.82
-122.99
-98.62
-72.84
-44.54
-13.66
18.05
47.32
70.68
86.01
93.52
95.57
95.54
96.23
98.76
102.43
105.32
105.48
101.81
94.38
84.19
72.61
60.90
49.91
40.06
31.43
23.89
17.18
10.91
4.65
-2.02
-9.49
-17.92
-27.16
-36.71
-45.88
-53.95
-60.42
-65.06
-67.84
-68.66
-67.27
-63.27
-56.31
-46.41
-34.02
-19.95
-5.14
9.61
23.77
37.01
49.07
59.64
68.35
74.89
79.10
81.14
81.41
80.54
79.25
78.23
77.99
78.84
80.76
83.55
86.81
90.11
93.06
95.36
96.84
97.43
97.22
96.37
95.06
93.33
90.91
87.27
81.70
73.69
63.32
51.47
39.77
30.17
24.34
23.23
26.95
34.99
46.65
61.36
78.75
98.37
119.34
140.02
158.02
170.69
175.89
172.72
161.99
146.18
128.77
113.20
101.73
94.66
90.27
85.50
77.11
62.73
41.45
13.96
-17.79
-51.08
-83.05
-111.29
-134.42
-152.28
-165.90
-176.85
-186.54
-195.71
-204.31
-211.91
-218.16
-223.13
-227.13
-230.28
-232.19
-232.02
-228.95
-222.59
-213.28
-201.70
-188.44
-173.52
-156.39
-136.29
-112.96
-87.03
-60.09
-34.22
-11.32
7.58
22.61
34.87
45.83
56.64
67.48
77.39
84.57
87.06
83.74
75.04
62.99
50.63
40.76
34.88
32.67
32.46
32.19
30.41
26.79
21.91
16.58
11.27
5.71
-0.99
-9.96
-22.10
-37.58
-55.45
-73.54
-88.70
-97.55
-97.42
-87.22
-67.68
-40.94
-9.65
23.81
57.67
90.50
120.86
147.06
167.47
180.99
187.46
187.66
182.94
174.65
163.82
151.03
136.56
120.46
102.56
82.54
60.21
35.89
10.71
-13.41
-34.40
-50.82
-62.59
-70.95
-77.89
-85.21
-93.80
-103.50
-113.54
-123.02
-131.27
-137.70
-141.55
-141.73
-137.05
-126.82
-111.45
-92.62
-73.02
-55.44
-41.92
-33.12
-28.35
-26.05
-24.45
-22.23
-18.72
-13.90
-8.02
-1.47
5.42
12.20
18.32
23.09
25.86
26.27
24.37
20.64
15.83
10.74
6.12
2.63
0.89
1.39
4.37
9.61
16.39
23.68
30.48
36.23
40.98
45.37
50.23
56.20
63.44
71.53
79.71
87.13
93.22
97.81
101.11
103.52
105.29
106.34
106.22
104.31
100.22
94.19
87.13
80.45
75.52
73.07
72.95
74.27
75.87
77.00
77.66
78.56
80.67
84.60
90.22
96.64
102.66
107.28
110.20
111.77
112.84
114.41
117.51
123.23
132.67
146.66
165.15
186.68
208.23
225.95
236.32
237.47
229.85
215.96
199.29
183.05
169.30
158.76
151.10
145.48
140.95
136.56
131.42
124.76
116.06
105.23
92.56
78.54
63.54
47.55
30.19
10.93
-10.55
-34.21
-59.52
-85.67
-111.97
-138.03
-164.04
-190.88
-220.02
-253.00
-290.54
-331.53
-372.33
-407.22
-429.84
-435.12
-420.92
-388.57
-342.12
-286.98
-228.45
-170.91
-117.52
-70.22
-29.80
4.18
33.30
59.78
85.88
113.25
142.66
174.00
206.47
238.36
267.10
289.54
302.75
305.15
297.18
281.21
260.48
237.84
214.70
191.02
166.19
140.01
113.31
87.64
64.28
43.26
23.02
0.95
-25.27
-56.56
-91.90
-128.89
-164.85
-198.21
-229.13
-259.39
-291.54
-327.94
-370.28
-419.26
-474.22
-532.50
-588.93
-636.15
-666.43
-674.41
-659.52
-626.61
-584.13
-540.59
-501.21
-466.52
-433.63
-399.19
-362.20
-324.84
-291.09
-264.10
-244.16
-228.53
-212.96
-194.02
-170.56
-143.93
-116.49
-89.85
-63.67
-36.12
-5.36
28.67
63.44
94.48
117.17
128.72
129.35
122.03
111.12
100.64
92.89
88.10
84.94
81.49
76.27
68.78
59.48
49.42
39.70
31.04
23.57
16.94
10.61
4.04
-3.19
-11.24
-20.07
-29.26
-37.98
-44.91
-48.48
-47.21
-40.21
-27.56
-10.39
9.38
29.56
48.27
64.31
77.22
87.09
94.20
98.77
100.92
100.82
98.79
95.41
91.34
87.11
82.88
78.47
73.51
67.71
61.06
53.92
46.83
40.32
34.65
29.74
25.21
20.51
15.09
8.48
0.40
-9.10
-19.51
-29.76
-38.25
-43.19
-43.11
-37.37
-26.43
-11.72
4.82
21.35
36.58
49.90
61.15
70.33
77.36
82.11
84.56
85.02
84.12
82.69
81.41
80.52
79.75
78.50
76.13
72.30
67.16
61.23
55.17
49.44
44.11
38.80
32.92
25.83
17.08
6.60
-5.20
-17.39
-28.57
-37.06
-41.26
-40.02
-33.12
-21.28
-6.12
10.35
26.23
40.18
51.57
60.36
66.78
71.05
73.32
73.72
72.51
70.15
67.23
64.26
61.39
58.41
54.86
50.34
44.75
38.35
31.64
25.15
19.18
13.79
8.77
3.86
-1.27
-6.90
-13.20
-20.15
-27.37
-34.06
-39.07
-41.13
-39.26
-33.05
-22.80
-9.41
5.90
21.92
37.67
52.38
65.43
76.20
84.01
88.27
88.74
85.76
80.30
73.76
67.55
62.55
58.88
55.91
52.62
48.14
42.07
34.69
26.73
18.99
12.00
5.84
0.11
-5.79
-12.48
-20.37
-29.50
-39.50
-49.51
-58.33
-64.51
-66.73
-64.07
-56.30
-44.03
-28.52
-11.45
5.53
21.06
34.23
44.56
51.86
56.08
57.28
55.67
51.67
45.94
39.35
32.83
27.19
22.96
20.23
18.73
17.95
17.31
16.32
14.66
12.15
8.73
4.35
-1.06
-7.55
-15.23
-24.14
-34.25
-45.27
-56.53
-66.93
-75.03
-79.37
-78.91
-73.42
-63.60
-50.87
-36.94
-23.31
-10.94
-0.26
8.66
15.82
21.13
24.44
25.71
25.16
23.36
21.10
19.07
17.70
16.97
16.50
15.81
14.50
12.46
9.84
6.91
3.91
0.95
-2.00
-5.04
-8.34
-12.06
-16.45
-21.82
-28.45
-36.38
-45.17
-53.79
-60.75
-64.48
-63.93
-58.94
-50.48
-40.30
-30.42
-22.44
-17.18
-14.52
-13.76
-14.04
-14.69
-15.47
-16.51
-18.18
-20.84
-24.75
-29.81
-35.63
-41.49
-46.62
-50.35
-52.29
-52.27
-50.21
-45.91
-39.12
-29.69
-17.77
-4.03
10.52
24.68
37.44
48.10
56.27
61.96
65.52
67.81
70.10
73.90
80.54
90.71
104.25
120.28
137.55
154.90
171.54
187.02
200.96
212.84
221.85
227.25
228.80
227.25
224.49
223.13
225.63
233.19
244.87
257.52
266.66
267.96
258.86
239.44
212.20
180.80
148.59
117.48
87.67
58.30
28.28
-3.06
-35.86
-70.04
-105.42
-141.51
-177.08
-209.93
-237.18
-256.19
-265.42
-265.00
-256.60
-242.67
-225.73
-207.80
-190.25
-173.95
-159.31
-146.31
-134.44
-122.77
-110.19
-95.78
-79.19
-60.82
-41.96
-24.73
-11.62
-4.88
-5.64
-13.37
-25.89
-40.09
-53.03
-62.89
-69.36
-73.22
-75.58
-77.14
-77.93
-77.57
-75.83
-73.00
-69.71
-66.51
-63.32
-59.24
-52.90
-43.17
-29.90
-14.16
2.06
16.62
28.13
36.32
41.89
45.94
49.26
52.06
54.09
54.99
54.74
53.76
52.76
52.32
52.58
53.09
52.94
51.18
47.13
40.79
32.72
23.87
15.10
6.85
-0.95
-8.77
-17.09
-26.09
-35.42
-44.25
-51.42
-55.70
-56.13
-52.24
-44.20
-32.88
-19.63
-6.01
6.57
17.13
25.18
30.68
33.81
34.90
34.25
32.21
29.19
25.65
22.05
18.73
15.82
13.25
10.74
7.99
4.83
1.28
-2.41
-5.94
-9.10
-11.95
-14.82
-18.23
-22.68
-28.43
-35.33
-42.76
-49.67
-54.83
-57.13
-55.91
-51.18
-43.61
-34.36
-24.72
-15.81
-8.28
-2.35
2.12
5.31
7.33
8.10
7.54
5.70
2.91
-0.28
-3.21
-5.46
-6.99
-8.23
-9.82
-12.35
-16.02
-20.59
-25.56
-30.39
-34.81
-38.86
-42.87
-47.20
-52.07
-57.49
-63.22
-68.85
-73.81
-77.35
-78.60
-76.77
-71.38
-62.56
-51.10
-38.29
-25.52
-13.87
-3.89
4.37
11.12
16.51
20.47
22.76
23.09
21.44
18.08
13.65
8.96
4.82
1.79
0.06
-0.55
-0.45
0.02
0.70
1.70
3.15
4.95
6.63
7.40
6.57
3.91
-0.16
-4.66
-8.49
-10.88
-11.62
-11.02
-9.70
-8.41
-7.88
-8.89
-12.17
-18.22
-27.02
-37.87
-49.48
-60.30
-69.01
-74.82
-77.56
-77.51
-75.02
-70.42
-63.94
-55.89
-46.78
-37.32
-28.28
-20.31
-13.69
-8.36
-3.98
-0.08
3.69
7.41
10.83
13.43
14.56
13.65
10.46
5.31
-0.86
-6.58
-10.14
-10.04
-5.43
3.55
15.83
29.67
43.26
55.22
64.81
71.93
76.74
79.40
79.96
78.40
74.94
70.17
64.99
60.38
57.07
55.25
54.54
54.15
53.23
51.20
47.90
43.66
39.04
34.62
30.76
27.50
24.67
21.99
19.21
16.22
13.04
9.90
7.19
5.57
5.84
8.82
14.99
24.27
35.88
48.45
60.51
70.88
79.07
85.30
90.06
93.47
94.75
92.24
84.08
69.26
48.48
24.37
0.69
-18.80
-31.59
-36.87
-35.33
-28.45
-17.82
-4.87
9.09
22.66
34.33
42.79
47.26
47.80
45.25
40.90
36.03
31.41
27.10
22.48
16.69
9.13
0.11
-9.07
-16.33
-19.52
-17.25
-9.42
2.70
16.91
30.75
42.04
49.26
51.61
48.94
41.71
30.90
17.90
4.26
-8.66
-19.84
-28.79
-35.39
-39.75
-42.06
-42.54
-41.56
-39.63
-37.36
-35.32
-33.87
-33.10
-32.79
-32.60
-32.16
-31.15
-29.38
-26.74
-23.32
-19.36
-15.29
-11.59
-8.68
-6.74
-5.59
-4.77
-3.67
-1.82
0.94
4.39
7.96
10.87
12.34
11.73
8.64
3.10
-4.43
-13.15
-22.00
-29.91
-35.99
-39.73
-41.06
-40.30
-38.08
-35.13
-32.10
-29.37
-26.94
-24.44
-21.37
-17.30
-12.03
-5.74
1.21
8.37
15.36
21.86
27.61
32.35
35.86
38.10
39.29
39.90
40.42
41.06
41.58
41.36
39.66
36.06
30.69
24.27
17.82
12.22
7.93
4.87
2.60
0.56
-1.71
-4.53
-8.03
-12.20
-16.83
-21.52
-25.58
-28.22
-28.76
-26.96
-23.20
-18.48
-14.14
-11.40
-10.97
-12.79
-16.24
-20.41
-24.61
-28.63
-32.75
-37.39
-42.76
-48.48
-53.58
-56.75
-56.80
-53.15
-46.00
-36.25
-25.15
-13.90
-3.33
6.05
13.94
20.08
24.19
26.09
25.94
24.30
21.96
19.70
17.92
16.57
15.28
13.72
11.80
9.69
7.64
5.71
3.81
1.78
-0.29
-2.01
-2.84
-2.43
-0.94
0.96
2.44
2.97
2.61
2.05
2.23
3.96
7.59
12.93
19.35
25.97
31.86
36.16
38.30
38.12
35.89
32.31
28.25
24.46
21.39
19.13
17.56
16.46
15.64
14.87
13.75
11.70
8.09
2.59
-4.64
-12.79
-20.76
-27.54
-32.71
-36.62
-40.32
-45.13
-52.20
-62.12
-74.75
-89.24
-104.13
-117.69
-128.13
-133.87
-133.88
-127.83
-116.25
-100.41
-82.17
-63.63
-46.70
-32.79
-22.54
-15.81
-11.84
-9.54
-7.87
-6.08
-3.90
-1.47
0.77
2.41
3.26
3.49
3.55
3.99
5.21
7.27
9.88
12.42
14.25
14.90
14.25
12.60
10.53
8.73
7.69
7.57
8.16
8.99
9.60
9.74
9.53
9.47
10.40
13.21
18.63
26.90
37.57
49.43
60.76
69.74
74.91
75.59
72.06
65.48
57.60
50.37
45.51
44.26
47.36
54.96
66.71
81.75
98.66
115.52
130.15
140.70
146.25
147.30
145.92
145.27
148.81
159.15
177.11
201.27
228.17
253.06
271.18
279.13
275.84
262.92
244.10
223.90
206.09
192.53
182.87
175.04
166.45
154.94
139.22
118.79
93.64
64.32
32.39
0.87
-26.03
-44.04
-50.68
-46.83
-36.88
-27.39
-24.57
-31.98
-49.40
-73.40
-99.02
-121.77
-138.87
-149.46
-154.10
-154.02
-150.59
-145.11
-138.87
-133.11
-129.05
-127.65
-129.43
-134.39
-142.09
-151.78
-162.75
-174.48
-186.73
-199.38
-212.10
-224.13
-234.31
-241.22
-243.62
-240.87
-233.02
-220.77
-205.15
-187.14
-167.58
-147.13
-126.41
-105.99
-86.35
-67.58
-49.22
-30.31
-9.75
13.12
37.86
62.74
84.84
100.71
107.28
102.66
86.82
61.65
30.66
-1.67
-31.01
-54.06
-69.34
-77.22
-79.47
-78.18
-74.76
-69.53
-61.98
-51.81
-39.95
-28.81
-21.74
-21.63
-29.42
-43.40
-59.54
-72.90
-79.29
-76.59
-65.15
-47.15
-25.53
-2.82
19.47
40.93
61.84
82.73
103.94
125.44
146.69
166.57
183.37
194.85
198.69
193.15
177.63
153.13
121.99
87.22
51.70
17.48
-14.41
-43.73
-70.64
-95.34
-117.89
-138.26
-156.34
-172.14
-185.82
-197.87
-209.09
-220.55
-233.28
-247.85
-263.90
-279.87
-293.21
-300.83
-299.99
-289.03
-267.86
-238.02
-202.25
-163.87
-125.99
-90.96
-60.15
-34.01
-12.41
5.05
18.89
29.75
38.45
46.05
53.63
61.87
70.58
78.43
83.18
82.55
75.38
62.42
46.23
30.30
17.59
9.45
5.53
4.39
4.71
6.05
8.79
13.37
19.35
25.06
27.89
25.38
16.18
0.57
-19.64
-41.76
-62.99
-80.98
-94.18
-101.85
-103.89
-100.58
-92.36
-79.77
-63.54
-44.70
-24.70
-5.31
11.76
25.18
34.45
39.95
42.72
44.06
45.06
46.38
48.24
50.61
53.43
56.66
60.29
64.18
68.08
71.66
74.58
76.60
77.53
77.17
75.32
71.80
66.71
60.55
54.20
48.66
44.67
42.34
41.24
40.71
40.29
39.97
40.00
40.41
40.69
39.82
36.77
31.22
23.96
16.77
11.65
9.93
11.63
15.45
19.42
21.76
21.52
18.77
14.31
9.20
4.38
0.49
-2.01
-2.83
-1.87
0.74
4.54
8.81
12.80
16.01
18.40
20.33
22.36
24.89
27.90
30.97
33.39
34.45
33.85
31.82
29.26
27.46
27.76
31.06
37.51
46.51
56.91
67.42
76.98
84.95
91.05
95.27
97.79
98.90
98.94
98.24
96.91
94.88
92.06
88.53
84.79
81.64
79.85
79.69
80.71
81.82
81.66
79.03
73.18
63.82
51.10
35.46
17.62
-1.38
-20.28
-37.76
-52.70
-64.36
-72.43
-76.93
-78.06
-75.96
-70.75
-62.58
-51.87
-39.45
-26.57
-14.65
-4.88
2.14
6.62
9.31
11.21
13.03
14.97
16.65
17.32
16.19
12.84
7.47
0.98
-5.30
-10.09
-12.70
-13.32
-12.95
-12.97
-14.47
-17.85
-22.54
-27.29
-30.59
-31.13
-28.39
-22.90
-16.35
-11.46
-11.27
-18.31
-33.61
-56.08
-82.49
-108.24
-128.46
-139.31
-138.73
-126.57
-104.15
-73.49
-36.62
4.56
48.33
92.92
136.55
177.73
215.50
249.47
279.46
304.90
324.55
336.77
340.33
335.38
323.74
308.36
291.98
275.90
259.40
240.18
215.61
184.05
145.58
101.85
55.22
7.94
-38.40
-82.66
-123.78
-160.47
-191.23
-214.77
-230.50
-238.79
-240.82
-238.14
-232.19
-223.98
-214.02
-202.57
-189.88
-176.31
-162.43
-148.81
-135.87
-123.78
-112.43
-101.55
-90.83
-80.07
-69.25
-58.44
-47.76
-37.29
-27.24
-17.94
-10.02
-4.20
-1.16
-1.18
-4.06
-9.12
-15.39
-21.85
-27.57
-31.88
-34.45
-35.35
-35.13
-34.73
-35.31
-37.82
-42.57
-49.01
-55.75
-60.95
-62.87
-60.40
-53.30
-42.19
-28.26
-12.94
2.44
16.76
29.24
39.34
46.83
51.75
54.46
55.59
55.90
56.06
56.45
57.03
57.38
56.92
55.24
52.26
48.30
43.89
39.51
35.40
31.47
27.41
22.84
17.41
10.99
3.61
-4.43
-12.66
-20.50
-27.45
-33.25
-37.88
-41.40
-43.82
-44.83
-43.90
-40.49
-34.36
-25.88
-15.94
-5.80
3.36
10.74
16.06
19.51
21.47
22.34
22.36
21.66
20.35
18.63
16.87
15.48
14.77
14.79
15.26
15.63
15.32
13.88
11.17
7.37
2.96
-1.50
-5.52
-8.80
-11.36
-13.42
-15.35
-17.52
-20.15
-23.20
-26.30
-28.73
-29.47
-27.48
-21.90
-12.40
0.62
16.05
32.23
47.30
59.64
68.11
72.22
72.09
68.29
61.69
53.33
44.25
35.44
27.70
21.57
17.23
14.56
13.16
12.54
12.27
12.08
11.86
11.62
11.33
10.94
10.30
9.31
8.00
6.59
5.36
4.56
4.20
4.02
3.54
2.20
-0.45
-4.57
-9.95
-15.96
-21.67
-26.04
-28.18
-27.56
-24.19
-18.56
-11.51
-3.97
3.23
9.54
14.68
18.57
21.22
22.63
22.80
21.74
19.61
16.81
14.00
12.01
11.53
12.83
15.61
19.04
22.16
24.18
24.83
24.29
23.03
21.45
19.81
18.11
16.34
14.49
12.65
10.93
9.43
8.19
7.23
6.53
6.00
5.43
4.50
2.89
0.51
-2.37
-5.08
-6.69
-6.35
-3.52
1.83
9.29
18.19
27.82
37.64
47.35
56.85
66.07
74.75
82.43
88.47
92.30
93.56
92.17
88.31
82.23
74.31
65.00
54.79
44.14
33.31
22.21
10.48
-2.43
-16.88
-32.79
-49.59
-66.26
-81.68
-94.80
-104.78
-110.90
-112.56
-109.42
-101.59
-89.81
-75.47
-60.30
-45.92
-33.44
-23.24
-15.08
-8.41
-2.73
2.20
6.42
9.88
12.60
14.68
16.29
17.67
19.00
20.42
21.94
23.39
24.45
24.81
24.23
22.63
20.08
16.74
12.81
8.53
4.27
0.46
-2.55
-4.66
-6.22
-7.99
-10.89
-15.63
-22.44
-30.93
-40.15
-48.84
-55.73
-59.84
-60.74
-58.64
-54.31
-48.87
-43.44
-38.82
-35.30
-32.76
-30.84
-29.22
-27.74
-26.40
-25.31
-24.49
-23.88
-23.26
-22.38
-21.02
-19.15
-16.94
-14.85
-13.51
-13.54
-15.43
-19.31
-24.94
-31.82
-39.34
-46.95
-54.26
-61.04
-67.12
-72.40
-76.83
-80.41
-83.03
-84.46
-84.19
-81.57
-75.98
-67.21
-55.63
-42.20
-28.25
-15.14
-4.02
4.28
9.21
10.63
9.08
5.95
3.44
3.95
9.29
19.81
34.13
49.63
63.36
73.19
78.38
79.51
77.95
75.00
71.47
67.56
62.83
56.18
45.64
28.71
3.48
-29.68
-66.67
-99.53
-118.36
-114.83
-85.67
-34.64
28.48
91.15
142.18
174.90
188.01
184.34
168.69
145.85
119.91
94.20
71.53
54.13
43.10
38.04
36.98
36.99
35.27
30.23
21.94
11.77
1.52
-7.68
-15.91
-24.34
-34.39
-46.94
-61.68
-77.06
-90.73
-100.23
-103.68
-100.41
-91.28
-78.59
-65.65
-55.81
-51.41
-52.73
-57.78
-62.85
-63.90
-58.18
-45.27
-27.06
-6.79
12.51
29.01
42.37
53.05
61.43
67.38
70.62
71.48
71.42
72.75
77.71
87.34
100.82
115.77
129.13
138.41
142.38
141.30
136.60
130.28
124.31
120.06
117.96
117.42
117.08
115.38
111.25
104.51
95.82
86.37
77.42
69.84
63.71
58.22
51.82
42.69
29.43
11.88
-8.66
-29.72
-48.50
-62.97
-72.58
-78.50
-82.91
-87.90
-94.38
-101.68
-108.02
-111.70
-112.19
-110.69
-109.63
-111.47
-117.48
-127.06
-138.12
-148.10
-155.19
-159.01
-160.49
-161.18
-162.49
-165.17
-169.32
-174.48
-179.75
-183.92
-185.59
-183.39
-176.30
-163.98
-146.96
-126.57
-104.64
-83.02
-63.24
-46.28
-32.59
-22.20
-14.81
-9.89
-6.74
-4.64
-3.02
-1.58
-0.39
0.27
0.10
-1.02
-2.93
-5.20
-7.33
-8.96
-10.04
-10.89
-12.10
-14.41
-18.46
-24.67
-33.00
-42.91
-53.41
-63.21
-71.03
-75.97
-77.62
-76.14
-71.95
-65.47
-56.91
-46.29
-33.71
-19.64
-5.06
8.75
20.48
29.41
35.63
40.01
43.83
48.16
53.26
58.41
62.19
63.14
60.64
55.38
49.24
44.67
43.65
47.00
54.11
63.09
71.06
74.46
69.88
55.19
31.20
2.58
-22.55
-34.94
-27.61
1.10
46.56
99.46
149.42
188.59
213.76
226.21
229.69
228.17
224.33
219.28
213.22
206.12
198.19
189.84
181.57
173.69
166.39
159.81
154.26
150.20
148.19
148.60
151.31
155.38
158.94
159.48
154.46
142.06
121.71
94.08
60.34
21.26
-23.29
-73.59
-128.52
-184.03
-233.00
-267.07
-280.00
-270.62
-243.97
-209.62
-178.04
-156.81
-148.45
-150.66
-158.43
-166.46
-171.00
-170.14
-163.42
-151.18
-134.29
-114.20
-93.04
-73.49
-58.24
-49.29
-47.27
-51.14
-58.38
-65.71
-70.09
-69.63
-64.19
-55.28
-45.47
-37.45
-33.20
-33.57
-38.33
-46.48
-56.62
-67.21
-76.55
-82.82
-84.27
-79.67
-68.80
-52.67
-33.43
-13.71
4.17
18.81
29.91
38.07
44.25
49.37
54.15
59.21
65.21
72.89
82.72
94.57
107.39
119.27
127.94
131.50
129.15
121.53
110.55
98.71
88.26
80.54
75.73
72.97
70.90
68.06
63.32
55.99
45.87
33.26
18.96
4.20
-9.57
-20.97
-29.05
-33.50
-34.63
-33.22
-30.19
-26.38
-22.43
-18.78
-15.76
-13.67
-12.82
-13.51
-15.87
-19.83
-24.99
-30.61
-35.79
-39.64
-41.57
-41.37
-39.17
-35.28
-29.89
-23.11
-15.05
-6.10
2.83
10.34
14.80
14.90
10.08
0.71
-11.96
-26.24
-40.37
-52.87
-62.70
-69.40
-72.99
-73.96
-72.93
-70.33
-66.10
-59.57
-49.77
-35.88
-17.89
3.08
24.90
44.96
60.95
71.45
76.19
75.93
72.03
65.92
58.74
51.12
43.26
35.11
26.67
18.08
9.63
1.54
-6.30
-14.46
-23.84
-35.35
-49.39
-65.62
-82.92
-99.76
-114.62
-126.41
-134.53
-138.77
-139.13
-135.69
-128.71
-118.57
-105.85
-91.11
-74.77
-57.08
-38.26
-18.63
1.22
20.50
38.53
54.91
69.63
82.90
94.95
105.79
115.30
123.35
130.03
135.82
141.41
147.45
154.25
161.50
168.25
173.22
175.20
173.46
167.96
159.28
148.50
136.92
125.81
116.12
108.33
102.54
98.68
96.79
97.12
100.11
106.05
114.79
125.47
136.49
145.68
150.67
149.53
141.61
128.21
112.77
100.15
95.17
100.78
116.68
139.25
162.84
181.83
192.52
193.92
187.45
175.79
161.73
147.33
133.69
120.97
108.64
95.83
81.88
66.78
51.42
37.32
26.08
18.86
16.15
18.01
24.56
36.21
53.34
75.46
100.60
125.33
145.67
158.60
163.20
160.89
154.60
147.32
140.92
135.69
130.78
125.18
118.46
111.04
103.93
98.06
93.81
90.88
88.53
85.94
82.67
78.74
74.50
70.40
66.67
63.18
59.53
55.21
49.83
43.35
36.03
28.36
20.81
13.72
7.12
0.86
-5.34
-11.68
-18.15
-24.60
-30.69
-36.15
-40.86
-44.93
-48.74
-52.75
-57.37
-62.79
-68.89
-75.31
-81.67
-87.73
-93.58
-99.65
-106.53
-114.72
-124.35
-135.09
-146.31
-157.33
-167.84
-178.03
-188.61
-200.42
-214.11
-229.89
-247.54
-266.62
-286.63
-307.01
-327.06
-345.81
-362.23
-375.53
-385.54
-392.91
-398.78
-404.35
-410.54
-417.91
-427.05
-439.07
-455.74
-478.87
-509.25
-545.46
-583.33
-616.59
-638.57
-644.26
-631.92
-603.55
-563.84
-518.47
-472.36
-428.70
-388.91
-353.33
-321.78
-294.01
-269.46
-247.10
-225.41
-202.78
-178.10
-151.19
-122.84
-94.39
-67.11
-41.68
-17.89
5.20
28.91
54.44
82.14
111.08
138.91
162.34
178.19
184.54
181.42
170.65
155.04
137.15
118.56
99.94
81.74
65.01
51.63
43.79
42.95
49.09
60.54
74.72
89.23
102.68
114.86
126.51
138.54
151.40
164.73
177.33
187.59
193.81
194.66
189.44
178.44
163.12
145.97
129.95
117.45
109.41
104.95
101.91
97.99
92.17
85.13
78.76
74.92
74.27
75.85
77.41
76.22
69.80
56.20
34.18
3.66
-33.65
-73.84
-111.21
-139.66
-154.59
-154.34
-140.43
-116.43
-86.26
-52.84
-17.81
17.81
52.78
85.40
113.98
137.75
157.02
172.97
186.53
197.26
203.23
201.74
191.09
171.95
147.84
123.76
104.61
93.47
90.88
95.29
104.01
114.20
123.36
129.49
130.62
125.51
114.17
98.09
79.90
62.52
48.45
39.37
36.54
40.31
50.57
66.34
85.49
105.01
121.83
134.03
141.39
147.48
154.52
162.57
169.42
172.96
173.56
174.29
178.96
188.26
200.54
211.27
215.30
209.30
192.89
168.07
137.30
103.36
67.92
32.05
-3.37
-36.38
-64.09
-83.78
-94.54
-98.02
-97.81
-98.08
-101.87
-110.83
-125.32
-145.24
-170.62
-201.52
-237.21
-275.52
-313.00
-345.59
-370.17
-385.36
-391.46
-389.72
-381.34
-366.80
-346.04
-319.20
-287.22
-252.17
-216.72
-183.43
-153.95
-128.83
-107.62
-89.39
-73.09
-57.73
-42.18
-25.14
-5.15
18.93
47.19
78.19
108.99
135.77
155.17
165.38
166.86
162.01
154.15
146.23
139.94
135.42
131.75
127.76
122.62
116.06
108.19
99.21
89.27
78.45
67.05
55.69
45.43
37.66
33.93
35.60
43.53
57.79
77.37
100.21
123.58
144.80
161.96
174.39
182.59
187.59
190.34
191.18
189.96
186.47
180.85
173.72
165.91
158.00
150.04
141.54
131.81
120.34
107.06
92.26
76.46
60.00
42.85
24.59
4.57
-17.81
-42.89
-70.65
-100.64
-132.04
-163.59
-193.53
-219.62
-239.47
-251.02
-253.17
-246.11
-231.24
-210.71
-186.80
-161.43
-136.06
-111.67
-88.85
-67.82
-48.43
-30.30
-13.14
3.05
17.79
30.32
39.99
46.62
50.61
52.83
54.21
55.52
57.18
59.43
62.44
66.51
72.07
79.50
89.01
100.49
113.36
126.55
138.49
147.28
151.11
148.77
140.37
127.68
113.96
103.14
98.68
102.40
114.02
131.15
149.97
166.05
175.22
174.25
161.39
136.76
102.24
60.91
16.30
-28.19
-69.41
-104.32
-129.99
-144.08
-145.78
-136.57
-119.89
-99.90
-79.85
-61.15
-43.86
-28.15
-15.62
-9.29
-11.99
-23.98
-41.64
-58.21
-66.78
-63.82
-51.25
-35.73
-25.57
-26.60
-39.48
-59.49
-78.80
-89.73
-87.71
-72.46
-47.50
-18.38
9.28
31.31
45.62
52.08
51.79
46.24
36.83
24.85
11.74
-0.94
-11.89
-20.77
-28.42
-36.16
-44.50
-51.98
-55.15
-50.20
-35.17
-11.73
14.84
37.35
49.33
47.26
31.38
5.26
-25.61
-55.22
-78.24
-91.00
-92.08
-82.54
-65.56
-45.45
-26.36
-10.96
0.27
8.95
17.78
29.10
43.69
60.22
75.99
88.10
94.66
95.36
91.11
83.30
73.35
62.57
52.15
42.99
35.11
27.28
17.38
3.72
-13.52
-31.56
-46.02
-53.24
-52.35
-46.14
-39.67
-37.84
-43.22
-55.32
-71.59
-89.13
-105.93
-121.08
-133.97
-143.64
-148.67
-148.03
-141.90
-131.96
-120.71
-110.10
-100.66
-91.46
-81.10
-68.99
-56.22
-45.35
-39.30
-39.94
-47.13
-58.86
-72.13
-84.02
-92.43
-96.15
-94.57
-87.64
-75.96
-60.95
-44.80
-29.89
-18.06
-10.15
-5.85
-4.19
-4.05
-4.65
-5.67
-7.06
-8.69
-10.14
-10.65
-9.32
-5.37
1.67
12.03
25.94
43.94
67.26
97.68
136.92
185.48
241.58
300.89
357.41
405.17
439.94
460.01
465.77
458.58
439.86
410.97
373.94
332.24
290.74
254.58
227.28
209.21
197.42
186.93
172.76
151.69
122.92
87.56
47.76
5.70
-36.97
-79.12
-119.96
-158.72
-194.36
-225.52
-250.53
-267.79
-276.16
-275.34
-266.04
-249.70
-227.98
-202.43
-174.25
-144.58
-114.59
-85.52
-58.21
-32.71
-8.26
16.22
41.01
64.72
84.13
94.99
93.50
77.64
48.05
7.92
-37.73
-83.07
-122.54
-151.86
-168.85
-173.85
-169.63
-160.63
-151.55
-146.05
-145.87
-150.73
-159.10
-169.24
-179.97
-190.88
-201.80
-212.19
-220.52
-224.49
-221.75
-210.90
-192.41
-168.58
-142.74
-118.00
-96.08
-77.04
-59.63
-42.26
-23.92
-4.56
15.15
34.24
52.10
68.98
86.11
105.78
131.02
165.03
210.30
267.52
334.54
406.01
473.98
529.59
565.27
576.85
564.85
534.27
493.01
449.35
409.44
375.76
347.16
320.27
291.55
259.13
223.47
186.84
151.95
120.56
92.81
67.34
42.32
16.22
-11.66
-41.17
-71.70
-102.42
-132.44
-160.82
-186.62
-209.00
-227.44
-241.88
-252.69
-260.65
-266.68
-271.61
-275.76
-278.66
-278.99
-275.01
-265.33
-249.80
-229.90
-208.44
-188.37
-171.53
-157.82
-145.40
-131.71
-114.91
-94.81
-72.81
-50.92
-30.67
-12.34
4.89
22.29
40.52
59.05
76.13
89.24
95.87
94.19
83.50
64.48
39.17
10.76
-16.94
-40.16
-56.10
-63.48
-62.86
-56.24
-46.43
-36.18
-27.58
-21.75
-18.89
-18.48
-19.49
-20.47
-19.81
-16.11
-8.67
2.05
14.47
26.51
36.35
43.15
47.35
50.24
53.36
57.90
64.48
73.20
83.87
95.97
108.57
120.21
129.14
133.84
133.65
129.11
121.69
113.20
104.95
97.38
90.08
82.23
73.19
62.66
50.65
37.13
21.87
4.52
-15.03
-36.35
-58.50
-80.56
-102.09
-123.41
-145.14
-167.39
-189.06
-207.77
-220.70
-225.77
-222.45
-211.91
-196.31
-177.82
-158.00
-137.82
-118.26
-100.86
-87.67
-80.54
-80.19
-85.58
-94.16
-102.78
-108.98
-111.78
-111.75
-110.34
-108.91
-107.95
-106.91
-104.67
-100.30
-93.64
-85.51
-77.28
-70.31
-65.30
-61.97
-59.16
-55.34
-49.12
-39.90
-27.97
-14.44
-0.73
12.01
23.29
33.32
42.74
52.12
61.63
70.83
78.90
84.98
88.55
89.59
88.51
85.88
82.16
77.54
72.06
65.77
58.96
52.19
46.17
41.49
38.39
36.64
35.70
34.96
34.06
32.98
32.06
31.74
32.41
34.35
37.76
42.81
49.62
58.18
68.21
79.18
90.41
101.32
111.54
120.99
129.64
137.38
143.84
148.51
150.93
150.95
148.81
145.02
140.14
134.54
128.29
121.32
113.54
105.10
96.42
88.02
80.39
73.69
67.70
61.83
55.37
47.60
38.05
26.55
13.37
-0.86
-15.04
-27.87
-38.02
-44.47
-46.83
-45.45
-41.28
-35.66
-29.95
-25.28
-22.41
-21.73
-23.27
-26.77
-31.78
-37.63
-43.52
-48.51
-51.64
-52.14
-49.62
-44.20
-36.62
-28.05
-19.86
-13.25
-9.03
-7.47
-8.31
-11.03
-15.02
-19.86
-25.38
-31.73
-39.20
-48.02
-58.11
-68.91
-79.37
-88.19
-94.15
-96.44
-94.87
-89.88
-82.37
-73.39
-63.82
-54.17
-44.59
-34.99
-25.36
-15.92
-7.14
0.43
6.42
10.86
14.15
16.89
19.55
22.18
24.34
25.32
24.45
21.40
16.33
9.74
2.21
-5.82
-14.31
-23.52
-33.89
-45.76
-59.19
-73.79
-88.80
-103.16
-115.72
-125.33
-131.10
-132.56
-129.84
-123.77
-115.66
-106.96
-98.74
-91.26
-83.93
-75.67
-65.61
-53.72
-41.01
-29.29
-20.47
-15.73
-15.11
-17.52
-21.20
-24.46
-26.15
-25.85
-23.71
-20.07
-15.28
-9.63
-3.58
2.20
6.85
9.64
10.34
9.33
7.48
5.66
4.28
3.07
1.27
-1.84
-6.38
-11.50
-15.51
-16.35
-12.34
-2.76
11.78
29.52
48.05
64.93
78.37
87.55
92.55
94.12
93.17
90.48
86.54
81.63
76.02
70.14
64.54
59.68
55.73
52.46
49.28
45.52
40.69
34.60
27.46
19.74
12.00
4.79
-1.47
-6.52
-10.26
-12.76
-14.28
-15.21
-16.06
-17.34
-19.47
-22.58
-26.39
-30.15
-32.74
-32.92
-29.76
-22.98
-13.12
-1.35
10.89
22.31
32.15
40.21
46.69
51.88
55.98
59.02
61.03
62.15
62.69
62.95
63.13
63.30
63.41
63.41
63.32
63.19
63.25
63.65
64.41
65.26
65.73
65.25
63.36
59.88
55.04
49.61
44.58
40.80
38.72
38.26
38.97
40.07
40.64
39.76
37.45
34.15
30.48
27.01
23.97
21.35
18.98
16.65
14.25
13.23
14.95
19.93
27.33
35.21
41.71
45.95
48.26
49.87
54.21
63.85
79.30
98.62
118.39
135.64
149.09
159.22
167.71
179.40
198.48
226.86
263.19
303.15
341.73
374.54
398.58
395.26
353.48
273.39
168.79
60.70
-33.55
-105.32
-154.42
-185.44
-204.67
-214.74
-217.14
-212.87
-203.35
-191.76
-181.22
-174.61
-173.93
-181.08
-195.36
-215.66
-241.16
-267.17
-289.37
-301.95
-299.61
-279.14
-242.12
-193.13
-139.51
-89.34
-48.85
-21.84
-7.98
-5.09
-4.61
1.15
17.87
46.66
84.10
124.83
159.07
184.26
199.46
204.98
201.37
189.47
172.38
151.39
126.88
98.24
65.49
28.20
-13.40
-58.64
-105.22
-148.43
-181.73
-197.84
-191.95
-163.73
-119.40
-69.45
-25.18
5.46
20.10
21.06
12.99
-0.62
-18.85
-43.24
-74.68
-110.48
-143.28
-163.14
-162.09
-138.34
-98.22
-54.12
-19.68
-4.10
-9.17
-30.26
-60.42
-94.71
-131.76
-172.07
-214.59
-254.56
-284.16
-296.01
-287.18
-261.09
-226.23
-192.50
-167.13
-152.41
-145.87
-142.66
-138.30
-130.67
-120.19
-108.78
-98.26
-89.17
-80.53
-70.43
-57.13
-40.10
-20.31
0.10
18.63
33.22
42.80
47.40
47.80
45.12
40.37
34.32
27.34
19.53
10.85
1.23
-9.41
-21.02
-33.44
-46.25
-58.65
-69.32
-76.49
-78.27
-73.01
-59.79
-38.77
-11.25
20.50
53.53
84.59
110.62
129.18
138.77
139.03
130.65
115.22
94.91
72.17
49.34
28.32
10.19
-4.78
-16.66
-25.29
-29.93
-29.78
-24.86
-16.95
-9.51
-6.78
-12.17
-26.83
-49.33
-76.48
-104.71
-131.31
-154.72
-173.79
-187.40
-194.31
-193.39
-184.14
-167.03
-143.52
-115.69
-85.75
-54.83
-23.61
7.32
37.29
65.80
92.69
118.39
143.68
169.45
197.78
229.73
264.50
299.64
332.16
360.10
383.20
402.53
419.66
438.05
459.30
482.02
502.21
515.17
517.58
508.47
488.97
461.74
433.49
410.36
395.76
389.43
388.41
388.82
387.28
381.70
352.14
289.46
198.04
94.68
-1.38
-78.31
-133.41
-169.19
-189.45
-197.72
-194.39
-181.19
-161.92
-142.02
-126.69
-118.71
-117.85
-122.13
-129.70
-138.13
-144.48
-149.76
-157.18
-169.81
-188.74
-212.33
-237.33
-260.77
-279.76
-293.80
-305.22
-317.93
-335.96
-362.62
-398.56
-441.25
-485.04
-521.22
-540.57
-536.48
-507.02
-456.02
-392.75
-327.40
-267.63
-216.92
-174.90
-139.82
-111.08
-89.82
-78.32
-79.20
-91.48
-110.05
-127.45
-137.04
-135.47
-123.73
-105.66
-78.60
-45.57
-12.76
13.78
31.51
41.25
44.78
43.16
37.54
29.78
21.29
14.74
13.17
18.63
31.28
50.18
71.88
94.60
118.16
142.53
168.45
196.74
227.49
259.69
291.40
320.33
344.74
363.25
374.38
377.61
373.31
362.08
343.84
317.28
280.25
231.34
171.21
103.46
34.85
-26.50
-74.03
-105.36
-123.08
-133.44
-143.26
-157.28
-176.56
-198.44
-218.14
-231.06
-234.43
-227.93
-213.19
-192.53
-168.03
-141.01
-112.17
-82.13
-52.11
-24.09
-0.42
17.07
28.08
34.06
37.68
41.64
47.46
54.91
62.47
68.28
71.23
71.48
70.27
69.21
69.67
72.40
77.71
85.83
97.14
112.25
131.77
155.92
184.29
215.90
249.41
283.31
316.18
346.66
373.64
396.25
413.88
426.03
432.21
431.91
424.71
410.56
389.88
363.80
333.96
302.20
270.07
238.68
208.71
180.55
154.19
128.66
102.40
73.66
41.00
3.97
-36.61
-78.79
-120.23
-159.09
-195.54
-230.75
-266.43
-304.40
-346.52
-394.28
-447.75
-504.36
-557.91
-600.65
-624.02
-621.93
-593.61
-544.82
-486.09
-428.62
-380.69
-345.26
-322.38
-309.06
-301.25
-295.08
-287.55
-276.36
-259.48
-235.81
-195.02
-135.65
-65.06
3.51
57.94
92.01
105.00
102.88
91.83
77.26
61.52
45.86
31.10
17.85
6.19
-4.24
-13.70
-22.51
-30.37
-37.88
-44.88
-50.29
-52.54
-50.43
-43.83
-33.59
-21.48
-9.13
1.64
10.12
16.73
22.47
28.22
34.15
39.86
44.40
46.90
46.48
43.03
37.42
31.34
26.66
24.88
26.60
31.40
38.36
46.46
55.27
65.09
76.62
90.35
106.15
123.18
140.25
156.27
170.53
182.76
192.92
201.17
207.90
213.81
219.91
227.35
237.09
249.60
264.75
281.77
299.48
316.52
331.68
344.10
353.44
359.88
363.96
366.38
367.77
368.57
368.76
367.86
364.83
358.25
346.77
329.61
307.03
280.49
252.21
224.49
198.90
175.81
154.39
133.20
110.83
86.50
60.38
33.37
6.71
-18.57
-42.13
-64.42
-86.53
-109.63
-134.42
-160.69
-187.35
-212.87
-235.90
-255.81
-272.99
-288.69
-304.78
-323.52
-347.14
-377.08
-412.83
-450.97
-485.02
-507.01
-510.11
-491.53
-454.04
-405.29
-355.07
-311.90
-280.50
-261.12
-250.84
-245.57
-241.77
-237.08
-230.10
-219.94
-206.22
-189.37
-171.10
-154.26
-142.21
-137.65
-141.44
-152.03
-165.71
-177.65
-183.36
-179.91
-166.66
-145.08
-118.07
-88.86
-60.05
-33.02
-7.84
16.24
40.09
63.95
87.06
107.74
123.86
133.56
135.84
130.96
120.48
107.00
93.64
83.45
78.64
80.15
87.32
98.04
109.27
117.85
121.25
118.16
108.62
93.88
75.88
56.79
38.67
23.27
11.91
5.36
3.66
6.01
10.82
16.11
19.88
20.57
17.21
9.47
-2.24
-16.58
-31.03
-41.91
-45.05
-37.13
-17.19
12.46
46.49
78.14
101.45
113.24
113.75
106.01
94.15
81.83
71.27
63.28
57.86
54.85
54.12
55.38
57.91
60.41
61.34
59.52
54.52
46.85
37.66
28.13
19.02
10.37
1.62
-8.11
-19.53
-32.87
-47.58
-62.42
-75.59
-85.25
-89.97
-89.15
-83.21
-73.39
-61.41
-48.92
-37.04
-26.18
-16.08
-6.12
4.31
15.61
27.75
40.32
52.63
63.92
73.48
80.83
85.77
88.34
88.73
87.21
84.06
79.52
73.84
67.22
59.78
51.48
42.21
31.90
20.81
9.59
-0.69
-8.98
-14.71
-18.12
-20.34
-23.06
-27.88
-35.54
-45.49
-55.82
-63.78
-66.64
-62.53
-51.04
-33.24
-11.33
12.05
34.23
53.00
66.75
74.69
77.01
74.76
69.57
62.99
56.00
48.74
40.83
31.97
22.41
13.04
4.97
-1.02
-4.81
-6.89
-7.98
-8.52
-8.56
-7.83
-6.06
-3.15
0.75
5.32
10.32
15.65
21.36
27.54
34.15
40.90
47.39
53.33
58.89
64.81
72.28
82.38
95.46
110.61
125.86
138.78
147.41
151.02
150.18
146.27
140.70
134.19
126.69
117.72
106.91
94.44
81.17
68.50
57.93
50.68
47.06
46.12
45.64
42.74
34.97
21.26
2.54
-18.70
-39.62
-58.34
-74.77
-90.49
-107.70
-127.84
-150.81
-174.92
-197.67
-216.59
-229.69
-235.53
-233.40
-223.74
-208.73
-192.40
-179.29
-171.95
-168.52
-162.31
-144.36
-108.33
-54.84
7.13
63.17
98.96
105.87
83.64
39.59
-14.76
-67.31
-107.92
-129.96
-130.95
-112.90
-81.98
-46.81
-15.73
5.94
17.27
20.91
20.75
19.60
18.23
15.98
12.20
7.18
2.00
-2.43
-6.18
-10.40
-16.38
-24.34
-32.93
-39.83
-43.01
-41.73
-36.79
-29.73
-21.70
-12.60
-1.12
14.34
34.80
60.07
88.90
119.40
149.61
177.57
201.51
219.99
232.38
239.27
242.59
245.13
249.58
257.53
268.97
282.46
295.60
305.79
310.78
309.08
300.20
284.67
263.98
240.17
215.27
190.77
167.31
144.92
123.45
103.13
84.70
69.12
56.93
47.72
39.91
31.18
19.25
2.82
-18.09
-42.37
-68.40
-95.02
-122.12
-150.69
-182.51
-219.81
-264.86
-319.30
-383.02
-452.86
-521.94
-580.38
-617.85
-627.08
-606.81
-562.68
-505.39
-447.07
-397.60
-362.63
-343.55
-338.96
-346.23
-362.30
-383.67
-406.16
-425.20
-436.59
-437.53
-427.17
-406.62
-378.58
-346.32
-312.96
-280.77
-250.86
-223.15
-196.77
-170.72
-144.42
-118.12
-92.66
-68.98
-47.52
-27.98
-9.37
9.44
29.32
50.52
72.84
95.84
119.20
142.61
165.60
187.25
206.12
220.63
229.55
232.43
229.70
222.36
211.46
197.79
181.84
164.23
146.10
129.36
116.27
108.81
107.96
113.36
123.50
136.32
149.96
163.36
176.30
189.04
201.79
214.20
225.28
233.72
238.37
238.76
235.31
229.16
221.83
214.69
208.56
203.49
198.74
193.09
185.17
173.77
158.17
138.36
115.37
91.33
69.15
51.67
40.51
35.12
32.70
29.17
20.96
6.60
-12.49
-32.51
-48.79
-57.39
-56.14
-44.80
-24.67
1.97
32.26
63.01
91.04
113.70
129.41
137.94
140.43
138.87
135.48
132.13
129.79
128.33
126.66
123.09
115.99
104.46
88.62
69.60
49.11
28.72
9.48
-8.23
-24.45
-39.17
-52.15
-62.90
-71.03
-76.68
-80.60
-83.92
-87.65
-92.08
-96.61
-99.93
-100.65
-97.96
-91.99
-83.81
-74.98
-67.05
-61.02
-57.19
-55.07
-53.62
-51.47
-47.29
-40.12
-29.71
-16.80
-3.01
9.62
19.18
24.55
25.68
23.47
19.34
14.70
10.61
7.64
6.03
5.85
7.04
9.36
12.22
14.70
15.63
13.98
9.20
1.46
-8.26
-18.44
-27.26
-33.02
-34.43
-30.82
-22.27
-9.61
5.69
21.76
36.77
49.26
58.43
64.11
66.54
66.08
63.01
57.55
50.04
41.22
32.16
24.08
17.90
13.96
11.86
10.72
9.48
7.25
3.48
-2.08
-9.45
-18.53
-29.07
-40.71
-52.97
-65.36
-77.51
-89.18
-100.17
-110.13
-118.36
-123.91
-125.85
-123.74
-117.95
-109.62
-100.32
-91.50
-84.05
-78.18
-73.63
-70.08
-67.41
-65.70
-65.04
-65.15
-65.27
-64.22
-60.66
-53.45
-41.97
-26.24
-6.91
14.88
37.79
60.61
82.53
103.23
122.73
141.10
158.06
172.87
184.50
192.02
195.15
194.50
191.56
188.36
186.94
189.05
195.96
208.39
226.52
249.85
277.07
306.20
334.73
360.25
380.97
396.05
405.55
410.01
409.92
405.42
396.41
382.88
365.31
344.79
322.83
300.93
280.16
261.01
243.46
227.26
212.18
198.10
184.92
172.37
160.00
147.24
133.59
118.80
102.95
86.37
69.53
52.88
36.68
21.07
6.07
-8.31
-21.94
-34.59
-45.94
-55.68
-63.57
-69.53
-73.65
-76.09
-77.08
-76.78
-75.30
-72.65
-68.84
-63.89
-57.92
-51.13
-43.88
-36.60
-29.78
-23.89
-19.31
-16.29
-14.95
-15.27
-17.21
-20.74
-25.90
-32.76
-41.35
-51.57
-63.06
-75.29
-87.60
-99.45
-110.56
-121.03
-131.27
-141.74
-152.76
-164.18
-175.48
-185.90
-194.81
-202.01
-207.95
-213.55
-219.90
-228.18
-238.84
-251.48
-265.03
-278.48
-291.35
-303.90
-316.96
-331.94
-350.92
-375.75
-407.25
-444.35
-483.62
-519.44
-545.10
-554.41
-543.65
-513.55
-467.71
-411.12
-348.62
-284.15
-220.85
-161.35
-107.95
-63.19
-32.01
-17.41
-19.08
-33.35
-55.13
-79.95
-105.06
-129.00
-152.17
-180.70
-217.94
-262.35
-308.08
-348.88
-381.71
-407.49
-428.88
-450.60
-485.13
-539.19
-610.65
-689.25
-762.19
-819.62
-856.66
-871.32
-867.22
-861.25
-866.06
-885.39
-913.60
-941.60
-962.88
-975.37
-978.28
-899.83
-707.59
-416.73
-85.22
223.52
471.87
651.24
758.33
819.13
851.78
855.66
830.26
781.18
721.09
663.66
617.48
585.25
567.54
559.76
548.52
524.98
487.97
443.55
400.10
363.56
336.02
318.32
307.45
294.97
275.49
248.62
218.69
191.56
171.48
160.07
157.75
162.06
167.55
170.30
169.10
165.52
162.45
162.33
166.43
175.23
187.44
200.42
212.02
221.36
229.06
236.61
245.70
257.81
274.22
295.43
321.06
349.53
377.91
402.42
419.60
427.73
427.65
422.62
417.10
414.98
418.23
426.36
436.89
446.37
451.46
449.56
439.14
419.64
391.53
356.09
315.26
271.23
226.03
181.18
137.50
94.91
52.54
8.71
-38.52
-90.64
-147.67
-207.43
-265.54
-316.51
-355.40
-379.57
-389.60
-388.79
-381.79
-372.69
-363.85
-355.71
-347.44
-337.86
-326.03
-311.24
-292.70
-269.35
-240.08
-204.12
-161.65
-113.85
-62.73
-10.55
40.70
89.52
134.80
175.49
210.47
238.95
261.06
278.40
293.68
309.53
327.00
344.55
358.38
364.04
358.44
341.25
314.78
282.79
248.75
214.66
180.98
147.29
113.02
77.81
41.25
2.26
-41.25
-91.87
-151.36
-218.82
-289.45
-354.84
-405.21
-432.70
-434.43
-413.55
-377.84
-336.53
-297.02
-263.20
-235.67
-213.47
-195.74
-182.36
-173.34
-167.91
-164.11
-159.24
-151.09
-138.92
-123.83
-108.37
-95.43
-87.04
-83.52
-83.31
-83.54
-81.13
-73.89
-61.38
-45.05
-27.58
-11.72
0.76
9.61
15.91
21.31
27.19
33.97
41.03
47.22
51.40
52.84
51.20
46.25
37.94
26.76
14.25
3.12
-3.41
-2.87
5.33
19.58
36.71
53.49
67.70
78.47
85.60
88.66
86.60
78.34
63.87
45.09
25.58
9.42
-0.34
-2.52
1.97
10.94
21.96
33.10
43.13
51.37
57.30
60.44
60.32
56.64
49.43
38.98
25.96
11.39
-3.32
-16.48
-26.43
-32.03
-33.15
-30.77
-26.67
-22.77
-20.36
-19.67
-19.93
-19.97
-18.77
-16.03
-12.11
-7.73
-3.57
-0.03
2.63
4.11
3.90
1.30
-4.18
-12.51
-22.96
-34.23
-44.92
-54.04
-61.33
-67.11
-72.07
-76.71
-81.11
-84.91
-87.55
-88.70
-88.39
-87.08
-85.37
-83.71
-82.16
-80.31
-77.48
-72.92
-66.09
-56.83
-45.35
-32.24
-18.33
-4.54
8.30
19.49
28.59
35.40
39.98
42.53
43.42
43.10
42.14
41.05
40.25
39.92
39.97
40.05
39.74
38.69
36.78
34.13
31.03
27.75
24.47
21.15
17.65
13.77
9.36
4.31
-1.39
-7.56
-13.74
-19.08
-22.35
-22.18
-17.48
-7.86
6.18
23.33
41.81
59.91
76.30
90.21
101.30
109.55
115.10
118.24
119.39
119.08
117.73
115.52
112.22
107.36
100.39
90.93
78.90
64.47
47.94
29.69
10.14
-10.25
-30.93
-51.34
-70.92
-89.05
-105.02
-117.94
-126.89
-131.10
-130.29
-124.86
-115.78
-104.26
-91.25
-77.16
-61.72
-44.25
-24.07
-0.85
25.18
53.10
81.51
108.62
132.51
151.37
163.63
168.19
164.63
153.32
135.57
113.40
89.21
65.29
43.30
24.10
7.86
-5.69
-16.84
-25.79
-32.72
-37.94
-42.01
-45.65
-49.60
-54.35
-59.96
-66.06
-71.87
-76.36
-78.40
-77.06
-71.93
-63.28
-52.16
-40.12
-28.77
-19.33
-12.35
-7.76
-5.02
-3.49
-2.61
-1.96
-1.24
-0.22
1.25
3.17
5.32
7.25
8.40
8.32
6.88
4.39
1.45
-1.31
-3.48
-5.11
-6.67
-8.78
-11.94
-16.20
-21.08
-25.72
-29.19
-30.73
-30.06
-27.27
-22.72
-16.81
-9.81
-1.88
6.87
16.26
25.91
35.22
43.54
50.26
54.99
57.60
58.22
57.14
54.75
51.46
47.70
43.83
40.05
36.30
32.29
27.64
22.14
15.87
9.32
3.13
-2.13
-6.30
-9.64
-12.73
-16.15
-20.17
-24.55
-28.67
-31.70
-32.94
-32.05
-29.12
-24.60
-19.05
-12.95
-6.58
-0.01
6.67
13.20
19.08
23.67
26.34
26.75
25.02
21.70
17.62
13.59
10.18
7.54
5.46
3.61
1.64
-0.54
-2.64
-4.28
-5.22
-5.55
-5.64
-5.93
-6.72
-8.04
-9.63
-10.92
-11.29
-10.27
-7.52
-2.75
4.30
13.73
25.15
37.49
49.52
59.78
67.06
70.87
71.64
70.47
68.67
67.16
66.25
66.88
69.62
74.50
80.78
87.15
92.15
94.74
94.47
91.61
89.49
91.28
98.69
111.10
125.96
140.24
151.76
159.58
163.88
169.41
180.53
199.42
225.08
254.16
282.92
308.79
330.66
348.50
368.12
394.76
430.97
475.06
521.91
565.69
602.29
630.27
618.11
546.93
414.38
238.95
51.29
-121.15
-263.16
-371.21
-448.72
-501.80
-531.81
-540.19
-529.90
-506.38
-476.61
-446.85
-421.04
-400.86
-386.51
-373.48
-357.53
-336.31
-310.32
-282.35
-255.67
-232.51
-213.88
-199.95
-187.92
-175.22
-160.45
-143.93
-127.09
-111.96
-99.75
-90.85
-85.17
-81.13
-77.27
-72.50
-66.48
-59.47
-52.08
-44.83
-38.17
-32.43
-27.25
-22.20
-16.75
-10.67
-4.08
2.60
8.89
14.41
19.02
22.81
25.79
28.08
29.81
31.11
32.16
33.21
34.40
35.57
37.67
40.68
44.19
47.69
50.82
53.47
55.70
57.64
59.21
60.16
59.97
58.23
54.82
49.91
44.01
37.94
32.79
29.58
29.00
30.82
34.08
37.26
38.84
37.84
34.09
28.06
20.45
11.85
2.40
-7.84
-18.69
-29.66
-40.02
-48.90
-55.41
-58.60
-57.39
-50.86
-38.58
-21.06
-0.05
21.65
40.95
55.30
63.43
65.58
63.06
57.67
51.08
44.54
38.87
34.43
31.06
27.81
23.02
14.74
1.66
-16.00
-36.26
-55.95
-71.92
-82.33
-87.20
-88.16
-87.48
-87.16
-88.36
-91.48
-96.58
-103.70
-112.90
-124.02
-136.26
-147.96
-156.65
-159.65
-154.91
-141.90
-122.22
-99.00
-75.77
-55.17
-38.14
-24.15
-12.04
-1.09
8.50
15.81
20.07
21.32
20.36
17.98
14.24
8.51
0.08
-10.96
-23.69
-36.16
-46.11
-51.75
-52.32
-48.11
-39.97
-29.02
-16.53
-5.12
2.70
5.41
3.04
-3.04
-10.77
-17.83
-22.13
-22.28
-20.02
-17.78
-17.40
-19.80
-25.62
-35.64
-50.18
-68.32
-87.82
-109.35
-133.71
-161.10
-190.97
-222.81
-256.18
-289.46
-319.14
-340.54
-353.94
-361.38
-364.92
-365.74
-364.98
-364.58
-366.73
-373.16
-354.43
-293.85
-194.74
-78.96
28.87
114.45
174.80
214.05
239.64
257.04
270.98
283.28
295.16
308.33
324.13
342.64
363.45
386.74
409.24
425.32
430.22
422.60
405.01
382.13
358.54
337.64
321.21
309.20
298.68
285.97
269.06
248.64
227.20
207.71
192.51
182.72
177.83
175.35
171.98
165.29
154.54
140.53
124.93
109.86
97.56
90.04
88.54
92.92
101.58
111.61
119.42
121.88
117.46
106.76
91.92
75.56
59.25
43.00
25.58
5.73
-16.90
-41.59
-66.99
-92.44
-118.33
-146.05
-177.49
-214.49
-258.17
-308.53
-363.90
-420.52
-472.70
-513.60
-536.82
-538.65
-519.79
-485.04
-441.57
-396.44
-354.36
-317.43
-285.45
-257.20
-231.84
-209.91
-191.91
-177.00
-162.61
-144.73
-120.84
-90.30
-54.69
-17.69
14.90
38.56
51.95
57.26
59.58
62.21
67.16
75.49
87.12
99.36
109.92
118.07
124.56
131.68
138.11
141.92
142.24
138.99
130.37
115.73
96.37
75.12
56.39
39.48
22.49
4.31
4.78
36.41
97.04
170.23
224.46
259.35
278.89
286.17
288.05
286.42
278.46
261.17
233.60
197.45
157.63
115.28
71.17
27.34
-13.49
-49.86
-80.04
-102.11
-114.66
-116.39
-110.36
-100.08
-87.46
-73.33
-59.02
-45.92
-35.22
-27.39
-21.20
-16.31
-11.81
-6.21
1.27
9.82
17.77
23.52
26.43
27.53
27.91
29.05
32.36
38.58
47.49
58.42
70.71
84.00
98.18
112.46
125.59
136.08
142.69
145.10
144.02
140.81
136.75
132.41
127.40
120.93
112.40
101.99
90.54
79.07
68.14
57.58
46.71
34.93
22.23
9.28
-2.92
-13.78
-23.61
-33.73
-45.94
-61.77
-81.79
-105.28
-130.44
-154.72
-175.20
-188.78
-192.32
-183.11
-159.78
-123.33
-77.84
-30.15
11.65
40.50
52.37
47.37
29.19
3.37
-24.75
-51.64
-76.08
-98.84
-121.83
-147.66
-179.31
-219.95
-271.77
-334.46
-403.80
-471.55
-527.24
-561.58
-569.92
-553.87
-520.34
-478.40
-435.77
-396.55
-361.28
-328.40
-296.25
-264.05
-231.90
-200.11
-168.93
-138.79
-110.79
-86.65
-67.78
-54.42
-45.19
-37.40
-28.15
-15.23
1.98
22.30
43.40
62.73
78.17
88.46
93.31
93.50
91.26
89.35
90.13
94.93
104.01
116.74
131.70
147.08
161.25
174.15
186.54
199.36
213.14
227.97
243.70
259.72
275.19
289.40
303.02
316.83
330.75
343.64
353.94
360.55
362.77
360.15
346.00
317.46
278.86
239.97
209.23
189.55
179.68
176.31
175.97
176.17
176.91
178.69
181.75
185.22
187.46
187.58
185.53
181.85
177.31
173.17
169.79
165.52
161.02
155.30
147.79
138.54
128.00
116.91
106.44
97.45
90.11
83.96
77.97
71.60
64.79
57.80
50.95
44.82
39.79
35.88
32.86
30.04
27.04
23.73
20.17
16.52
13.09
10.13
7.78
6.06
4.73
3.61
2.62
1.78
1.11
0.71
0.68
1.10
2.00
3.22
4.55
4.95
3.80
1.35
-1.60
-4.30
-6.38
-7.86
-9.02
-10.22
-12.68
-17.12
-23.23
-29.94
-36.17
-41.28
-45.13
-48.06
-50.76
-55.98
-65.38
-78.31
-92.41
-105.39
-115.97
-123.98
-130.10
-135.57
-147.17
-168.78
-198.40
-230.01
-258.28
-280.74
-297.33
-309.29
-318.53
-338.09
-375.65
-428.18
-485.68
-539.61
-585.51
-620.50
-641.28
-644.37
-645.53
-655.61
-672.38
-685.53
-688.69
-682.84
-672.35
-661.55
-653.93
-675.24
-739.89
-839.42
-950.15
-1051.90
-1135.76
-1200.99
-1250.53
-1143.85
-832.43
-391.18
44.79
388.74
625.09
774.64
865.16
919.42
952.74
951.20
907.33
833.09
753.20
687.13
642.17
617.19
607.29
606.78
592.84
552.32
490.53
425.02
370.52
332.82
311.05
301.17
298.48
287.81
260.56
220.19
178.21
144.22
121.38
109.50
106.11
108.47
108.77
102.37
90.16
76.79
65.79
57.96
52.45
47.86
43.14
35.69
24.23
9.54
-5.88
-20.12
-32.46
-42.93
-52.00
-60.21
-68.13
-76.42
-85.83
-96.29
-107.58
-118.99
-129.47
-137.89
-143.18
-144.41
-140.48
-134.18
-126.77
-119.36
-112.93
-108.10
-105.02
-103.26
-101.95
-100.15
-97.39
-93.22
-88.00
-82.39
-77.01
-72.21
-68.01
-64.38
-61.33
-59.07
-57.33
-55.89
-54.40
-52.55
-50.09
-46.97
-43.36
-39.58
-36.01
-32.67
-29.60
-26.72
-23.96
-21.23
-18.50
-15.76
-13.03
-10.37
-7.72
-5.08
-2.47
0.09
2.63
5.26
8.13
11.40
15.18
19.49
24.19
29.04
33.84
38.51
43.19
48.23
54.08
61.09
69.40
78.86
89.13
99.82
110.63
121.49
132.53
144.10
156.73
171.08
187.62
206.26
225.94
244.49
259.09
267.13
267.20
259.57
246.09
229.34
211.70
194.67
178.84
164.30
151.15
139.60
129.72
121.06
112.48
102.49
89.92
74.41
56.60
37.84
19.82
4.27
-7.08
-12.44
-10.09
1.15
21.29
48.69
80.20
111.92
140.34
163.17
179.61
189.94
194.83
194.84
190.37
181.90
170.25
156.65
142.50
129.07
117.30
107.71
100.43
95.30
91.83
89.32
86.97
84.14
80.47
75.96
70.87
65.51
60.05
54.46
48.49
41.73
33.62
23.62
11.46
-2.46
-16.74
-28.95
-36.08
-35.51
-25.90
-7.81
16.31
42.78
67.82
88.47
103.25
112.14
116.15
116.70
115.12
112.29
108.59
103.94
98.07
90.69
81.85
72.02
62.02
52.87
45.42
40.17
37.13
35.87
35.48
34.67
31.85
25.47
14.30
-2.16
-23.54
-48.80
-76.76
-106.54
-137.88
-170.81
-205.05
-239.36
-271.41
-298.06
-316.35
-324.43
-322.11
-310.80
-293.02
-271.60
-248.97
-226.92
-206.48
-188.08
-171.76
-157.17
-143.83
-131.18
-118.80
-106.44
-94.13
-82.01
-70.24
-58.90
-47.87
-36.86
-25.52
-13.54
-0.87
12.21
25.12
37.13
47.67
56.49
63.72
69.63
74.39
77.93
79.97
80.17
78.39
74.79
69.83
64.17
58.65
54.34
52.41
53.88
59.06
67.08
75.90
82.92
85.98
84.35
78.99
71.99
65.48
60.66
57.49
55.10
52.53
49.49
46.45
44.31
43.85
45.38
48.61
52.85
57.22
60.78
62.63
61.96
58.11
50.63
39.29
24.03
4.83
-18.19
-44.82
-74.79
-107.77
-143.44
-181.40
-220.79
-260.04
-296.52
-326.82
-347.39
-355.53
-350.23
-332.46
-304.85
-270.79
-233.51
-195.42
-158.08
-122.46
-89.30
-59.34
-33.19
-11.19
6.73
21.00
32.23
41.01
47.80
52.96
56.79
59.70
62.08
64.40
67.00
70.02
73.36
76.67
79.49
81.36
82.01
81.42
79.84
77.57
74.73
71.07
65.85
58.15
47.18
32.71
15.44
-3.00
-20.26
-33.91
-42.00
-43.62
-38.99
-29.30
-16.22
-1.38
13.94
28.91
42.99
55.74
66.67
75.29
81.25
84.54
85.53
84.86
83.22
81.09
78.62
75.72
72.19
67.91
62.99
57.70
52.28
46.80
41.10
34.83
27.72
19.69
10.93
1.87
-7.07
-15.60
-23.67
-31.33
-38.70
-45.82
-52.77
-59.70
-66.84
-74.39
-82.33
-90.21
-97.23
-102.53
-105.52
-106.19
-105.09
-103.06
-100.83
-98.68
-96.42
-93.63
-89.86
-85.02
-79.34
-73.33
-67.37
-61.64
-56.03
-50.37
-44.65
-39.08
-34.08
-30.02
-27.01
-24.82
-22.99
-21.00
-18.63
-16.00
-13.56
-11.89
-11.53
-12.73
-15.45
-19.43
-24.24
-29.49
-34.88
-40.23
-45.46
-50.50
-55.30
-59.87
-64.38
-69.20
-74.89
-81.92
-90.42
-99.79
-108.61
-114.81
-116.27
-111.40
-99.76
-82.16
-60.33
-36.32
-11.91
11.71
33.87
54.11
71.94
86.81
98.23
106.04
110.58
112.55
112.89
112.38
111.50
110.37
108.87
106.85
104.28
101.24
97.92
94.45
90.81
86.85
82.33
77.01
70.72
63.49
55.41
46.74
37.78
28.89
20.41
12.59
5.49
-1.14
-7.81
-15.20
-23.96
-34.31
-45.77
-57.09
-66.42
-71.76
-71.58
-65.23
-53.21
-36.90
-18.17
1.15
19.63
36.39
51.03
63.37
73.34
80.85
85.85
88.44
88.92
87.78
85.57
82.81
79.80
76.62
73.22
69.49
65.37
60.91
56.23
51.44
46.62
41.71
36.60
31.13
25.22
18.92
12.39
5.92
-0.21
-5.78
-10.73
-15.25
-19.68
-24.53
-30.26
-37.21
-45.36
-54.22
-62.77
-69.61
-73.17
-72.16
-65.97
-54.86
-39.93
-22.81
-5.25
11.38
26.22
38.92
49.40
57.64
63.54
67.08
68.39
67.86
66.12
63.79
61.34
58.91
56.37
53.55
50.38
47.01
43.72
40.80
38.33
36.10
33.66
30.58
26.65
21.94
16.83
11.79
7.22
3.23
-0.33
-3.83
-7.70
-12.31
-17.87
-24.26
-31.01
-37.19
-41.56
-42.79
-39.88
-32.54
-21.30
-7.38
7.69
22.49
36.05
47.88
57.87
66.07
72.45
76.97
79.50
80.05
78.80
76.04
72.20
67.64
62.67
57.43
52.04
46.58
41.08
35.58
30.02
24.29
18.29
11.96
5.44
-0.97
-6.81
-11.68
-15.35
-17.89
-19.58
-20.91
-22.33
-24.16
-26.48
-29.02
-31.16
-32.04
-30.71
-26.50
-19.26
-9.49
1.77
13.25
23.85
32.91
40.25
46.00
50.29
53.12
54.30
53.69
51.28
47.37
42.49
37.24
32.15
27.53
23.52
20.15
17.47
15.50
14.24
13.55
13.15
12.66
11.78
10.41
8.70
6.93
5.36
4.06
2.81
1.13
-1.55
-5.71
-11.54
-18.73
-26.49
-33.60
-38.65
-40.50
-38.50
-32.78
-24.15
-13.82
-3.05
7.11
16.05
23.44
29.11
32.91
34.67
34.24
31.64
27.07
20.93
13.71
5.88
-2.20
-10.26
-18.12
-25.69
-32.91
-39.84
-46.57
-53.23
-59.90
-66.54
-72.94
-78.87
-84.10
-88.51
-92.13
-95.03
-97.33
-99.10
-100.45
-101.48
-102.20
-102.41
-101.56
-98.82
-93.27
-84.28
-71.89
-56.95
-40.87
-25.37
-11.94
-1.58
5.40
9.24
10.64
10.53
9.83
9.31
9.27
9.58
9.72
9.10
7.32
4.42
0.87
-2.71
-5.77
-8.09
-9.75
-10.94
-11.83
-12.45
-12.68
-12.43
-11.58
-10.07
-7.93
-5.31
-2.58
-0.39
0.53
-0.31
-2.88
-6.40
-9.46
-10.46
-8.09
-1.74
8.40
21.58
36.73
52.76
68.67
83.62
96.95
108.28
117.64
125.49
132.55
139.59
147.03
154.69
161.83
167.38
170.47
170.68
168.26
163.94
158.49
152.32
145.32
136.87
126.16
112.57
95.91
76.49
55.18
33.12
11.60
-8.31
-25.99
-41.41
-55.11
-67.84
-80.20
-92.23
-103.33
-112.44
-118.46
-120.64
-118.81
-113.30
-104.68
-93.63
-80.82
-66.95
-52.80
-39.23
-27.13
-17.13
-9.58
-4.47
-1.54
-0.48
-1.10
-3.30
-7.04
-12.15
-18.22
-24.61
-30.61
-35.64
-39.39
-41.84
-43.16
-43.58
-43.30
-42.57
-41.72
-41.30
-41.92
-44.06
-47.76
-52.48
-57.17
-60.45
-61.02
-58.02
-51.27
-41.36
-29.52
-17.27
-5.99
3.40
10.60
15.87
19.73
22.71
25.21
27.53
29.82
32.24
34.75
37.09
38.88
39.81
39.93
39.66
39.57
39.83
39.92
38.60
34.43
26.52
15.05
1.37
-12.56
-24.91
-34.67
-41.97
-47.87
-53.85
-61.23
-70.75
-82.42
-95.61
-109.38
-122.86
-135.51
-147.29
-158.48
-169.27
-179.44
-187.89
-192.81
-192.07
-183.87
-167.47
-143.55
-114.24
-82.65
-52.31
-26.41
-7.39
3.41
5.82
0.89
-9.32
-22.10
-34.60
-44.46
-50.30
-51.94
-50.31
-46.92
-43.42
-41.04
-40.29
-40.94
-42.16
-42.93
-42.47
-40.52
-37.33
-33.59
-30.08
-27.55
-26.53
-27.35
-30.07
-34.35
-39.27
-43.27
-44.42
-41.05
-32.38
-18.95
-2.41
15.01
31.41
45.68
57.67
67.83
76.67
84.44
91.04
96.29
100.10
102.58
103.69
103.09
100.02
93.72
83.96
71.48
58.09
46.11
37.71
34.16
35.52
40.79
48.31
56.29
63.15
67.71
69.17
67.21
61.96
54.05
44.54
34.64
25.29
16.86
9.19
1.80
-5.64
-13.01
-19.73
-24.90
-27.69
-27.54
-24.36
-18.44
-10.35
-0.76
9.63
20.33
31.03
41.57
51.79
61.33
69.55
75.75
79.42
80.49
79.30
76.28
71.64
65.21
56.56
45.55
32.63
18.99
6.31
-3.79
-10.22
-12.72
-11.83
-8.50
-3.68
2.02
8.23
14.75
21.47
28.52
36.38
45.78
57.26
70.55
84.21
95.92
103.36
105.31
102.32
96.50
90.64
87.04
86.64
88.89
92.23
94.79
94.99
91.79
84.88
74.71
62.37
49.45
37.64
28.27
21.97
18.55
17.19
16.83
16.53
15.68
13.92
11.13
7.40
3.19
-0.62
-2.83
-2.25
1.86
9.57
20.30
33.12
47.13
61.68
76.51
91.72
107.78
125.43
145.56
168.70
194.35
220.52
243.74
259.99
265.97
260.46
244.60
221.29
193.81
164.43
133.61
100.17
62.28
18.97
-28.78
-77.80
-123.42
-161.05
-187.87
-203.90
-212.08
-217.14
-223.86
-235.56
-253.23
-275.76
-300.75
-325.44
-347.34
-364.45
-375.19
-378.49
-373.83
-361.55
-342.86
-319.67
-294.26
-268.60
-243.80
-219.89
-195.81
-169.90
-140.72
-107.83
-72.30
-36.68
-4.32
21.70
39.50
48.95
51.57
49.73
45.89
41.70
37.76
33.80
29.06
22.86
15.02
6.09
-2.80
-10.14
-14.63
-15.56
-13.14
-8.39
-2.81
2.13
5.38
6.49
5.55
2.88
-1.20
-6.43
-12.47
-18.70
-24.12
-27.48
-27.70
-24.16
-17.06
-7.35
3.68
14.81
25.31
35.03
44.18
52.93
61.13
68.24
73.46
76.04
75.52
71.84
65.38
56.81
46.80
35.85
24.18
11.74
-1.60
-15.73
-30.18
-44.02
-56.12
-65.50
-71.65
-74.75
-75.57
-75.18
-74.56
-74.42
-75.13
-76.89
-79.76
-83.53
-87.55
-90.60
-91.13
-87.72
-79.78
-67.92
-53.86
-39.84
-27.82
-18.87
-13.04
-9.74
-8.20
-7.97
-8.91
-11.04
-14.32
-18.47
-23.08
-27.79
-32.35
-36.63
-40.41
-43.33
-44.88
-44.69
-42.74
-39.49
-35.65
-31.72
-27.52
-22.02
-13.57
-0.48
18.45
43.49
74.18
109.67
149.09
191.74
236.98
284.02
331.64
378.15
421.33
458.57
487.06
504.16
508.04
498.29
476.24
444.81
407.71
368.50
329.80
293.04
258.76
227.10
197.98
171.06
145.39
119.16
89.94
55.12
12.46
-39.53
-101.19
-171.24
-246.39
-321.19
-388.87
-443.08
-479.75
-498.38
-501.81
-494.48
-480.26
-460.86
-435.94
-404.46
-366.44
-323.78
-279.89
-238.23
-200.90
-168.06
-138.43
-110.41
-83.07
-56.54
-31.92
-10.39
7.33
21.39
32.67
42.26
50.97
59.00
65.90
70.94
73.56
73.68
71.87
69.11
66.46
64.70
64.18
64.79
66.14
67.81
69.42
70.60
70.84
69.46
65.75
59.27
50.18
39.36
28.28
18.52
11.40
7.62
7.24
9.86
14.88
21.61
29.42
37.72
46.05
54.12
61.82
69.09
75.81
81.71
86.35
89.38
90.71
90.58
89.51
88.12
86.90
85.99
85.20
83.95
81.44
76.79
69.34
58.86
45.66
30.42
13.88
-3.49
-21.57
-40.35
-59.56
-78.22
-94.50
-106.05
-110.64
-106.78
-94.29
-74.29
-48.92
-20.91
6.99
32.45
53.79
70.19
81.61
88.69
92.51
94.31
95.22
96.08
97.50
99.85
103.41
108.43
115.04
123.16
132.40
141.99
150.90
157.84
161.37
160.05
152.64
138.28
116.84
88.90
55.73
18.82
-20.49
-61.29
-102.84
-144.15
-183.61
-219.05
-248.36
-270.10
-283.74
-289.41
-287.27
-277.12
-258.52
-231.44
-196.81
-156.86
-115.13
-75.69
-42.45
-18.20
-4.60
-1.28
-5.66
-13.32
-19.68
-22.14
-20.76
-17.60
-14.46
-11.57
-6.70
3.79
23.05
51.99
88.36
128.27
167.92
204.95
236.86
260.60
272.59
269.83
251.00
215.86
167.20
110.79
56.06
10.34
-21.76
-39.18
-43.33
-37.94
-31.00
-29.71
-37.54
-49.70
-62.32
-72.53
-79.80
-84.22
-86.95
-94.53
-112.07
-140.03
-168.09
-189.86
-202.33
-206.68
-204.78
-199.56
-200.86
-217.01
-250.67
-290.61
-330.10
-365.45
-396.56
-422.31
-401.96
-310.26
-149.63
4.56
128.68
218.60
290.77
349.48
396.80
433.83
455.10
456.44
438.20
412.98
387.36
363.86
341.25
319.63
299.57
276.61
246.67
208.55
170.18
135.06
104.13
76.09
51.05
29.45
8.07
-16.58
-46.64
-78.61
-111.60
-145.88
-182.45
-220.19
-256.20
-287.72
-311.36
-323.92
-322.12
-307.89
-287.35
-268.79
-258.78
-260.01
-271.12
-287.18
-301.84
-309.16
-306.44
-293.80
-272.69
-244.22
-208.84
-167.14
-121.31
-75.97
-37.49
-11.81
-1.97
-6.50
-19.94
-34.95
-45.13
-47.22
-41.77
-32.33
-23.96
-21.67
-29.16
-47.82
-76.29
-110.75
-146.10
-177.69
-202.95
-221.98
-236.89
-250.20
-263.26
-275.74
-286.18
-293.03
-295.41
-293.14
-286.28
-274.64
-257.80
-235.58
-208.54
-178.19
-146.67
-116.14
-88.25
-63.98
-43.51
-26.36
-11.58
2.04
15.65
30.08
45.55
61.69
77.66
92.54
105.69
117.03
127.15
137.13
148.38
162.21
179.54
200.34
223.34
246.00
264.83
276.00
276.32
264.16
240.30
208.08
172.76
140.07
114.69
98.98
92.80
94.37
101.53
112.72
127.13
144.22
162.95
181.65
198.52
212.57
224.26
235.24
247.43
261.99
278.70
296.16
312.29
325.00
332.37
332.60
323.93
304.86
274.63
233.69
183.67
126.92
65.82
2.37
-61.53
-123.72
-181.35
-231.25
-270.91
-299.40
-317.62
-327.59
-331.12
-328.68
-319.32
-301.56
-274.87
-240.52
-201.60
-162.01
-125.15
-93.09
-66.47
-45.04
-28.22
-15.43
-5.91
1.61
9.16
19.15
33.40
52.00
72.87
92.46
107.24
115.47
117.88
117.13
116.28
117.03
119.05
120.41
118.95
113.71
105.51
96.48
89.10
85.31
86.25
92.48
104.10
120.52
140.06
159.92
176.81
188.41
194.72
198.55
204.56
217.19
238.55
267.38
299.72
330.73
356.49
374.85
384.99
386.61
379.31
362.91
338.21
307.30
273.23
238.85
205.91
174.82
145.42
118.00
93.78
74.43
60.89
52.42
46.57
40.20
30.93
17.97
2.00
-15.73
-34.18
-52.67
-70.49
-86.29
-98.26
-104.86
-105.88
-102.85
-98.39
-94.97
-93.89
-95.03
-97.72
-101.70
-107.61
-116.54
-129.15
-144.83
-161.70
-177.34
-189.58
-197.11
-199.56
-197.20
-190.64
-180.61
-167.83
-152.93
-136.30
-117.95
-97.75
-75.80
-52.91
-30.70
-11.35
3.11
11.35
13.23
9.74
2.64
-5.98
-14.09
-20.10
-23.02
-22.57
-19.26
-14.27
-9.24
-5.85
-5.25
-7.57
-11.79
-15.94
-17.89
-16.22
-10.92
-3.57
2.93
5.15
0.02
-14.38
-38.35
-70.40
-107.63
-146.40
-183.06
-214.72
-239.49
-256.44
-265.35
-266.36
-260.09
-247.66
-230.86
-211.77
-192.39
-174.06
-157.40
-142.46
-129.23
-117.86
-108.63
-101.62
-96.37
-91.73
-86.11
-77.96
-66.29
-50.95
-32.69
-12.82
7.07
25.60
41.85
55.37
66.06
73.78
78.19
78.68
74.82
66.64
55.03
41.63
28.48
17.51
9.96
6.18
5.54
6.80
8.39
8.82
6.99
2.35
-4.93
-14.04
-23.64
-32.32
-39.05
-43.65
-46.95
-50.46
-55.64
-63.04
-71.77
-79.56
-83.54
-81.26
-71.67
-55.40
-34.43
-11.31
11.69
33.07
52.12
68.69
82.85
94.68
104.24
111.74
117.53
122.08
125.91
129.34
132.50
135.18
136.97
137.32
135.75
131.97
126.08
118.46
109.75
100.57
91.26
81.85
72.09
61.71
50.60
38.88
26.77
14.52
2.37
-9.27
-19.66
-27.70
-32.05
-31.69
-26.31
-16.62
-4.19
9.06
21.43
31.91
40.27
46.82
52.06
56.29
59.53
61.54
62.03
60.93
58.41
54.81
50.47
45.60
40.26
34.48
28.32
21.98
15.76
9.94
4.67
-0.06
-4.42
-8.65
-12.98
-17.67
-22.97
-29.10
-36.26
-44.36
-53.01
-61.35
-68.23
-72.41
-72.89
-69.25
-61.73
-51.15
-38.72
-25.72
-13.26
-2.18
7.03
14.16
19.20
22.30
23.68
23.67
22.59
20.75
18.40
15.74
12.88
9.90
6.83
3.68
0.44
-2.95
-6.56
-10.48
-14.80
-19.55
-24.70
-30.19
-35.97
-42.11
-48.71
-55.93
-63.73
-71.80
-79.38
-85.41
-88.63
-88.02
-83.10
-74.13
-62.04
-48.18
-33.95
-20.47
-8.43
1.93
10.58
17.57
22.88
26.47
28.37
28.79
28.19
27.14
26.20
25.75
25.88
26.42
27.08
27.54
27.63
27.30
26.59
25.58
24.31
22.79
20.95
18.69
15.84
12.15
7.41
1.53
-5.19
-11.90
-17.26
-19.68
-17.80
-11.05
0.09
14.12
28.95
42.52
53.34
60.78
64.93
66.40
65.87
63.87
60.72
56.57
51.55
45.85
39.79
33.79
28.19
23.17
18.66
14.37
9.93
5.05
-0.30
-5.93
-11.51
-16.79
-21.71
-26.51
-31.53
-37.20
-43.79
-51.46
-60.16
-69.62
-79.26
-88.15
-95.09
-98.77
-98.24
-93.16
-84.03
-71.99
-58.55
-45.05
-32.37
-20.89
-10.66
-1.67
5.93
11.89
15.98
18.23
18.93
18.63
17.93
17.26
16.80
16.51
16.28
15.98
15.59
15.07
14.35
13.34
11.91
10.03
7.76
5.21
2.39
-0.78
-4.57
-9.30
-15.04
-21.49
-27.75
-32.43
-34.04
-31.33
-23.82
-12.00
2.86
18.98
34.63
48.49
59.75
68.04
73.27
75.50
74.90
71.86
66.95
60.92
54.48
48.27
42.63
37.69
33.40
29.60
26.01
22.36
18.36
13.80
8.59
2.79
-3.39
-9.70
-15.98
-22.16
-28.39
-34.87
-41.90
-49.67
-58.12
-66.84
-74.93
-81.15
-84.10
-82.69
-76.40
-65.59
-51.39
-35.42
-19.38
-4.57
8.24
18.84
27.42
34.28
39.64
43.63
46.27
47.59
47.72
46.91
45.50
43.82
42.09
40.39
38.68
36.84
34.74
32.26
29.34
25.91
21.94
17.42
12.39
6.90
0.96
-5.44
-12.39
-20.06
-28.56
-37.89
-47.72
-57.34
-65.60
-71.18
-72.90
-70.05
-62.73
-51.76
-38.48
-24.34
-10.50
2.33
13.89
24.14
33.02
40.35
45.98
49.80
51.94
52.74
52.58
51.71
50.22
48.07
45.25
41.98
38.67
35.81
33.69
32.23
30.92
29.04
25.93
21.26
15.22
8.37
1.44
-4.96
-10.54
-15.50
-20.34
-25.74
-32.28
-40.21
-49.32
-58.84
-67.52
-73.81
-76.21
-73.72
-66.17
-54.35
-39.77
-24.26
-9.41
3.74
14.77
23.71
30.74
35.93
39.30
40.89
40.93
39.94
38.55
37.27
36.34
35.68
35.01
34.12
32.93
31.51
29.97
28.23
26.00
22.85
18.37
12.46
5.40
-2.19
-9.68
-16.53
-22.61
-28.14
-33.62
-39.66
-46.75
-55.06
-64.41
-74.21
-83.48
-91.04
-95.76
-96.91
-94.36
-88.73
-81.13
-72.94
-65.38
-59.20
-54.68
-51.68
-49.89
-48.96
-48.60
-48.55
-48.52
-48.12
-46.92
-44.57
-40.89
-35.91
-29.95
-23.45
-16.89
-10.74
-5.32
-0.85
2.52
4.75
5.82
5.75
4.59
2.43
-0.51
-3.96
-7.71
-11.70
-16.12
-21.32
-27.62
-34.99
-42.86
-50.12
-55.38
-57.41
-55.52
-49.77
-40.89
-30.01
-18.27
-6.56
4.54
14.75
23.87
31.68
37.95
42.47
45.27
46.64
47.09
47.20
47.39
47.80
48.28
48.53
48.34
47.65
46.64
45.62
44.86
44.54
44.59
44.89
45.26
45.58
45.79
45.85
45.64
45.06
44.00
42.59
41.21
40.59
41.66
45.38
52.50
63.34
77.71
95.05
114.48
134.98
155.41
174.51
190.91
203.24
210.32
211.57
207.18
198.20
186.25
172.93
159.41
146.02
132.26
117.01
98.92
76.65
49.17
15.96
-22.76
-65.85
-111.27
-156.42
-198.76
-236.43
-268.67
-295.88
-319.27
-340.43
-360.61
-380.21
-398.40
-412.99
-420.92
-419.05
-405.33
-379.57
-343.65
-300.87
-254.78
-208.05
-161.92
-116.36
-70.89
-25.29
20.00
63.94
105.32
143.12
176.72
206.03
231.41
253.54
273.15
290.61
305.61
317.11
323.78
324.79
320.48
312.53
303.42
295.49
290.04
286.88
284.66
281.40
275.22
264.67
249.10
228.79
205.12
180.44
157.43
138.27
123.74
112.94
103.84
94.34
83.25
70.73
57.70
45.03
32.75
19.90
5.05
-13.00
-34.54
-59.00
-85.23
-112.05
-138.55
-164.01
-187.71
-208.76
-226.16
-238.90
-246.24
-247.77
-243.55
-234.09
-220.39
-203.91
-186.33
-169.24
-153.85
-140.80
-130.22
-122.12
-116.57
-113.78
-113.88
-116.55
-120.77
-125.04
-127.73
-127.62
-124.07
-117.01
-106.65
-93.12
-76.47
-56.76
-34.42
-10.41
13.81
36.63
56.66
73.19
86.08
95.77
102.78
107.61
110.54
111.69
111.19
109.26
106.23
102.42
98.07
93.30
88.10
82.47
76.35
69.74
62.56
54.68
45.95
36.31
25.92
15.29
5.29
-2.97
-8.33
-9.99
-7.70
-1.92
6.29
15.55
24.55
32.40
38.67
43.41
46.82
49.10
50.28
50.25
48.97
46.63
43.76
41.16
39.61
39.71
41.70
45.55
51.04
57.88
65.74
74.10
82.27
89.42
94.88
98.33
100.01
100.50
100.41
100.05
99.28
97.76
95.26
92.03
88.82
86.69
86.61
89.25
94.83
103.29
114.42
127.89
143.21
159.61
175.99
190.90
202.67
209.62
210.34
204.05
190.91
172.19
149.99
126.74
104.31
83.40
63.38
42.73
19.87
-5.99
-34.44
-64.19
-93.61
-121.56
-147.82
-173.01
-198.25
-224.87
-254.16
-287.32
-324.97
-366.41
-408.95
-447.68
-476.34
-489.07
-482.22
-455.35
-410.99
-353.39
-287.33
-217.43
-148.32
-84.86
-31.95
6.47
28.60
35.46
30.80
20.12
9.49
4.28
8.20
22.34
44.88
71.34
95.71
112.28
117.39
110.20
92.38
66.59
35.10
-0.99
-41.39
-85.66
-132.25
-178.42
-220.83
-256.49
-283.56
-301.57
-311.02
-312.84
-307.84
-296.66
-279.99
-258.80
-234.47
-208.59
-182.73
-158.16
-135.79
-116.12
-99.20
-84.61
-71.52
-59.01
-46.47
-34.01
-22.41
-12.77
-5.94
-2.03
-0.37
0.13
0.39
0.89
1.65
2.53
3.66
5.46
8.51
13.11
19.00
25.31
30.97
35.20
37.98
40.19
43.26
48.68
57.25
68.64
81.50
93.83
103.77
110.24
113.17
113.32
111.67
108.83
104.79
99.16
91.63
82.43
72.30
62.23
52.84
44.13
35.43
25.81
14.41
0.86
-14.68
-31.74
-49.81
-68.65
-88.38
-109.41
-132.26
-157.29
-184.45
-213.17
-242.31
-270.27
-295.11
-314.69
-326.95
-330.23
-323.78
-308.17
-285.36
-258.24
-229.72
-201.74
-174.72
-147.63
-118.79
-86.87
-51.63
-14.11
23.90
60.60
94.74
125.96
154.47
180.83
205.81
230.38
255.63
282.39
310.38
337.57
360.18
373.53
373.71
359.24
331.80
295.84
257.00
220.40
189.42
165.54
148.92
139.28
136.19
139.09
146.82
157.51
168.86
178.86
186.55
192.27
197.40
203.46
211.13
219.87
228.11
234.12
236.99
237.08
235.80
234.91
235.70
238.65
243.46
249.23
254.64
258.05
257.66
251.98
240.39
223.55
203.23
181.72
161.10
142.71
127.07
114.09
103.40
94.48
86.68
79.38
72.25
65.52
59.89
56.08
54.25
53.80
53.81
53.86
54.55
57.32
63.53
73.59
86.61
100.88
114.66
126.75
136.36
142.55
143.87
138.54
125.21
103.81
75.79
43.55
9.30
-25.69
-61.10
-96.84
-132.11
-165.08
-193.27
-214.56
-228.05
-234.36
-235.20
-232.65
-228.32
-223.02
-216.99
-210.27
-203.14
-196.21
-190.13
-185.10
-180.54
-175.16
-167.39
-156.02
-140.69
-122.11
-101.68
-81.01
-61.38
-43.51
-27.82
-14.65
-4.52
1.92
4.19
2.19
-3.74
-12.92
-24.63
-38.28
-53.37
-69.39
-85.69
-101.54
-116.23
-129.26
-140.38
-149.45
-156.30
-160.48
-161.47
-158.93
-153.07
-144.76
-135.42
-126.70
-119.98
-116.07
-114.97
-115.93
-117.60
-118.40
-116.80
-111.75
-102.87
-90.63
-76.15
-60.94
-46.46
-33.83
-23.64
-15.90
-10.28
-6.26
-3.32
-1.00
1.21
3.83
7.31
11.82
17.05
22.20
26.33
28.74
29.25
28.30
26.57
24.71
22.98
21.23
19.06
15.95
11.35
4.76
-4.16
-15.44
-28.68
-43.07
-57.63
-71.46
-83.83
-94.07
-101.35
-104.54
-102.47
-94.42
-80.54
-62.15
-41.53
-21.26
-3.52
10.45
20.50
27.23
31.50
33.94
34.74
33.75
30.76
25.83
19.34
12.00
4.50
-2.59
-9.00
-14.69
-19.79
-24.40
-28.61
-32.47
-35.94
-38.99
-41.52
-43.45
-44.74
-45.44
-45.77
-46.21
-47.40
-49.88
-53.85
-58.82
-63.62
-66.69
-66.54
-62.29
-53.84
-41.77
-27.04
-10.68
6.36
23.03
38.10
50.18
58.07
61.19
59.96
55.83
50.79
46.77
45.17
46.63
51.05
57.60
64.76
70.40
72.16
68.18
57.83
42.03
22.88
2.62
-17.46
-37.54
-58.91
-83.06
-110.61
-141.02
-173.00
-205.21
-236.75
-266.97
-294.79
-318.04
-333.52
-337.60
-327.60
-302.75
-264.69
-216.95
-163.89
-109.39
-55.97
-4.59
45.12
94.20
143.66
193.94
244.43
293.35
337.89
374.91
401.74
417.08
421.28
416.13
404.05
387.26
367.40
345.63
323.08
301.07
281.01
263.76
249.15
235.88
222.03
205.71
185.51
160.62
130.72
96.00
57.23
16.02
-25.11
-63.19
-95.52
-120.36
-137.17
-146.31
-148.38
-143.83
-132.93
-116.15
-94.68
-70.54
-46.13
-23.52
-3.86
12.87
27.40
40.64
53.19
65.07
76.02
85.70
93.86
100.33
104.93
107.39
107.45
105.05
100.48
94.34
87.39
80.25
73.35
66.97
61.40
57.06
54.37
53.53
54.28
55.96
57.74
58.96
59.42
59.42
59.43
59.88
60.86
62.21
63.68
65.08
66.32
67.34
67.95
67.68
65.78
61.31
53.39
41.48
25.59
6.51
-14.41
-35.57
-55.65
-74.03
-90.78
-106.42
-121.40
-135.85
-149.47
-161.91
-173.07
-183.16
-192.58
-201.47
-209.49
-215.74
-219.09
-218.63
-214.07
-205.87
-195.16
-183.34
-171.64
-160.68
-150.28
-139.68
-128.00
-114.82
-100.65
-86.73
-74.70
-65.78
-60.24
-57.17
-54.78
-51.07
-44.47
-34.35
-21.29
-7.04
5.91
15.03
18.66
16.90
12.11
8.56
11.29
24.29
48.85
82.78
120.88
156.58
184.07
200.04
204.31
199.29
188.54
175.25
161.39
147.60
133.75
119.77
105.95
92.86
80.92
69.96
59.26
47.89
35.21
21.36
7.21
-6.06
-17.50
-26.91
-34.89
-42.51
-50.75
-60.01
-69.88
-79.34
-87.28
-92.99
-96.54
-98.72
-100.69
-103.45
-107.44
-112.48
-117.93
-123.09
-127.49
-131.08
-134.05
-136.57
-138.52
-139.32
-138.07
-133.81
-125.93
-114.41
-99.85
-83.26
-65.67
-47.88
-30.36
-13.37
2.75
17.44
30.03
40.09
47.71
53.71
59.42
66.14
74.56
84.43
94.65
103.82
110.86
115.51
118.33
120.21
121.88
123.52
124.73
124.82
123.22
119.63
114.11
106.84
98.02
87.73
76.01
62.98
49.04
34.97
21.86
10.99
3.48
-0.02
0.47
4.39
10.73
18.43
26.56
34.39
41.29
46.63
49.84
50.53
48.68
44.68
39.16
32.72
25.67
18.01
9.55
0.29
-9.46
-19.06
-27.71
-34.83
-40.16
-43.95
-46.74
-49.16
-51.70
-54.51
-57.30
-59.44
-60.16
-58.96
-55.95
-51.96
-48.34
-46.43
-46.93
-49.54
-53.08
-55.95
-56.66
-54.31
-48.64
-39.96
-28.85
-16.12
-2.70
10.39
22.14
31.78
38.95
43.73
46.52
47.91
48.50
48.76
49.01
49.38
49.75
49.90
49.48
48.21
45.98
42.81
38.93
34.64
30.25
26.01
22.12
18.63
15.54
12.81
10.42
8.38
6.75
5.47
4.31
2.82
0.48
-3.09
-8.04
-14.11
-20.75
-27.17
-32.56
-36.17
-37.46
-36.15
-32.35
-26.52
-19.45
-12.10
-5.37
0.09
4.05
6.65
8.35
9.71
11.17
12.93
14.89
16.85
18.67
20.37
22.11
24.13
26.58
29.45
32.46
35.06
36.34
35.25
30.85
22.70
11.03
-3.27
-19.11
-35.53
-52.08
-68.73
-85.54
-102.38
-118.93
-134.82
-150.00
-164.74
-179.30
-193.38
-205.86
-214.79
-218.11
-214.41
-203.55
-186.79
-166.26
-144.23
-122.35
-101.37
-81.31
-61.96
-43.40
-26.22
-11.34
0.43
8.71
13.80
16.44
17.60
18.09
18.41
18.81
19.42
20.40
21.91
24.02
26.51
28.80
30.17
29.92
27.83
24.24
20.09
16.50
14.46
14.41
16.21
19.21
22.47
25.10
26.42
26.10
24.29
21.54
18.66
16.53
15.70
16.27
17.74
19.21
19.67
18.29
14.59
8.39
-0.20
-10.89
-23.27
-36.69
-50.32
-63.19
-74.25
-82.66
-87.87
-89.69
-88.20
-83.73
-76.78
-68.08
-58.58
-49.35
-41.48
-35.78
-32.58
-31.66
-32.37
-33.89
-35.53
-36.90
-37.91
-38.64
-39.29
-40.08
-41.28
-43.19
-45.94
-49.37
-52.90
-55.56
-56.41
-54.86
-50.86
-44.62
-36.03
-24.08
-6.77
18.34
53.20
98.33
152.48
213.02
276.66
340.20
400.88
456.15
503.50
540.45
564.91
575.98
574.28
561.89
541.72
516.54
488.32
457.97
425.70
391.47
355.59
318.83
282.29
247.17
214.43
184.52
157.27
131.93
107.39
82.55
56.67
29.56
1.66
-26.40
-54.05
-81.19
-108.28
-136.13
-165.86
-198.66
-235.66
-277.31
-322.63
-368.62
-410.42
-442.40
-460.12
-461.97
-449.87
-428.47
-403.17
-378.20
-355.49
-334.90
-315.35
-296.12
-277.39
-259.96
-244.53
-231.06
-218.77
-206.57
-193.72
-180.24
-166.84
-154.69
-144.69
-137.13
-131.63
-127.33
-123.37
-119.14
-114.24
-108.30
-100.69
-90.54
-76.98
-59.56
-38.57
-15.13
9.19
32.67
53.97
72.22
87.08
98.50
106.64
111.79
114.29
114.62
113.18
110.19
105.50
98.71
89.38
77.46
63.56
49.03
35.55
24.61
16.98
12.45
10.08
8.57
6.83
4.17
0.35
-4.62
-10.63
-17.54
-24.96
-32.21
-38.31
-42.18
-42.87
-39.75
-32.49
-21.00
-5.39
13.92
35.98
59.23
81.88
102.38
120.00
134.84
147.57
158.68
168.10
175.13
179.01
179.31
176.08
169.50
159.17
143.86
121.96
92.38
55.70
14.47
-27.33
-65.72
-97.95
-123.26
-142.55
-157.53
-169.80
-180.42
-190.02
-199.16
-208.51
-218.51
-228.80
-237.89
-243.20
-242.00
-232.36
-214.02
-188.52
-158.66
-127.50
-97.46
-69.89
-45.11
-22.95
-3.12
14.38
29.37
41.65
51.21
58.37
63.68
67.83
71.38
74.66
77.64
79.91
80.85
79.87
76.73
71.71
65.45
58.62
51.57
44.08
35.65
25.67
13.79
-0.02
-15.56
-32.48
-50.35
-68.51
-86.01
-101.62
-114.11
-122.65
-127.02
-127.73
-125.76
-122.35
-118.67
-115.90
-115.09
-117.21
-122.97
-132.39
-144.61
-157.74
-169.30
-176.81
-178.57
-174.04
-163.80
-149.01
-130.78
-109.72
-85.94
-59.43
-30.51
-0.07
30.59
60.16
87.65
112.41
133.96
151.86
165.75
175.69
182.53
187.92
193.92
202.20
213.40
226.76
240.56
252.90
262.57
269.34
273.75
276.52
277.88
277.46
274.46
268.13
258.17
244.83
228.89
211.28
193.02
175.00
158.00
142.60
129.13
117.66
108.04
100.02
93.28
87.33
81.42
74.63
66.13
55.64
43.76
31.79
21.34
13.62
9.15
7.71
8.78
12.09
17.80
26.52
38.72
54.39
72.68
92.14
111.17
128.50
143.55
156.42
167.52
177.22
185.50
191.83
195.24
194.49
188.16
174.80
153.08
122.04
81.48
32.26
-23.58
-82.96
-142.18
-197.53
-245.76
-284.60
-312.98
-331.21
-340.89
-344.61
-345.30
-345.51
-346.65
-348.58
-349.64
-347.37
-339.36
-324.21
-301.91
-273.66
-241.36
-206.79
-171.25
-135.43
-99.82
-64.96
-31.65
-0.89
26.46
49.95
69.70
86.28
100.49
112.99
124.09
133.70
141.47
146.99
149.97
150.29
147.98
143.16
136.04
126.98
116.59
105.66
94.99
85.03
75.69
66.33
56.06
44.30
31.16
17.69
5.63
-3.06
-6.91
-5.43
0.70
9.80
19.71
28.45
34.68
37.98
38.71
37.68
35.77
33.56
31.26
28.80
26.01
22.74
18.94
14.72
10.25
5.78
1.56
-2.20
-5.35
-7.92
-10.07
-12.08
-14.25
-16.81
-19.76
-22.92
-25.98
-28.66
-30.96
-33.17
-35.83
-39.31
-43.51
-47.66
-50.42
-50.27
-46.14
-37.91
-26.49
-13.57
-0.94
10.06
18.87
25.67
31.03
35.46
39.19
42.25
44.63
46.54
48.28
50.03
51.65
52.72
52.85
52.03
50.85
50.22
50.91
53.13
56.31
59.42
61.53
62.23
61.83
61.11
60.85
61.40
62.56
63.73
64.39
64.48
64.55
65.52
68.33
73.35
80.25
88.10
95.86
102.88
109.16
115.17
121.30
127.41
132.58
135.43
134.76
130.08
121.96
111.93
102.12
94.98
92.83
97.47
109.64
128.28
150.27
170.63
183.78
185.22
173.16
149.09
117.14
82.45
49.31
20.06
-5.12
-27.59
-49.36
-72.39
-97.80
-125.36
-153.07
-177.24
-193.27
-197.19
-187.26
-165.00
-134.90
-102.93
-74.47
-52.85
-38.92
-31.92
-30.63
-34.31
-42.70
-55.42
-71.29
-88.14
-103.31
-114.46
-120.28
-120.82
-117.12
-110.71
-102.97
-94.94
-87.36
-81.11
-77.29
-77.20
-81.84
-91.57
-105.87
-123.43
-142.59
-161.86
-180.55
-199.13
-219.40
-243.90
-274.72
-312.23
-354.05
-395.08
-428.75
-449.05
-452.46
-438.86
-411.10
-373.59
-330.67
-285.74
-241.27
-199.33
-161.98
-131.20
-108.23
-93.06
-84.07
-78.47
-73.14
-65.52
-54.29
-39.64
-22.89
-5.77
10.13
23.82
35.01
43.77
50.18
54.13
55.27
53.32
48.36
41.06
32.75
25.14
20.01
18.77
22.19
30.23
42.11
56.57
72.11
87.42
101.59
114.19
125.11
134.36
142.03
148.20
153.00
156.57
158.96
160.04
159.61
157.74
155.08
152.87
152.54
154.90
159.59
164.99
168.76
168.69
163.45
152.58
136.10
113.86
85.33
50.10
8.56
-37.43
-84.53
-128.63
-165.77
-192.94
-208.36
-211.35
-202.11
-181.52
-151.15
-113.21
-70.41
-25.39
19.67
63.42
105.05
143.87
178.73
207.91
229.31
241.02
241.79
231.43
210.84
181.93
147.26
109.64
71.51
34.66
0.08
-31.72
-60.25
-84.66
-103.88
-117.02
-123.90
-125.29
-122.62
-117.28
-109.98
-100.49
-87.83
-70.92
-49.14
-22.73
7.08
37.91
66.35
88.17
98.93
95.02
74.79
39.53
-6.23
-55.22
-98.74
-128.48
-138.58
-127.36
-98.05
-58.19
-17.62
14.37
31.62
32.40
19.09
-3.44
-29.88
-55.90
-78.67
-96.65
-109.34
-117.29
-122.14
-126.22
-131.46
-137.98
-143.16
-142.13
-129.56
-102.21
-60.82
-10.37
41.43
86.54
119.14
137.05
142.07
138.97
133.86
132.23
137.12
148.04
160.99
169.93
169.12
155.37
129.28
94.87
57.89
23.83
-3.68
-23.23
-35.13
-40.62
-41.18
-38.31
-33.56
-28.48
-24.43
-22.02
-20.68
-18.56
-13.18
-2.46
14.30
35.91
59.71
82.69
102.98
120.71
137.91
157.41
181.38
210.23
242.22
273.97
301.45
320.96
329.96
327.60
314.67
293.40
266.73
237.46
207.60
177.92
148.05
116.69
82.33
43.94
1.76
-42.26
-84.61
-121.15
-148.55
-165.57
-173.54
-175.73
-175.90
-176.79
-179.43
-183.36
-187.50
-190.94
-193.22
-194.13
-193.17
-189.53
-182.31
-170.98
-155.75
-137.42
-117.22
-96.33
-75.51
-54.90
-33.90
-11.43
13.64
41.79
72.35
103.48
132.69
157.82
178.03
194.08
207.97
221.90
237.19
253.63
269.67
283.13
292.13
295.66
293.61
286.52
275.04
259.76
241.19
220.00
197.15
173.82
151.08
129.38
108.43
87.28
65.06
41.69
18.29
-2.83
-18.91
-27.61
-27.85
-20.00
-5.60
13.27
34.52
56.35
77.19
95.52
109.85
118.81
121.53
117.78
108.12
93.68
75.84
56.04
35.49
15.20
-4.14
-22.13
-38.72
-54.29
-69.57
-85.51
-102.99
-122.49
-144.03
-167.13
-191.11
-215.41
-239.84
-264.64
-290.51
-318.60
-350.18
-386.15
-426.22
-468.14
-507.64
-539.24
-557.87
-560.52
-547.21
-520.68
-485.05
-444.23
-400.80
-355.87
-309.81
-263.06
-216.60
-171.75
-129.64
-90.77
-54.96
-21.58
10.02
40.29
69.33
97.06
123.35
148.21
171.75
194.03
214.91
233.91
250.28
263.23
272.21
277.14
278.34
276.44
272.00
265.40
256.65
245.63
232.30
217.08
200.86
184.95
170.64
158.68
148.93
140.25
130.91
119.02
103.19
82.92
58.69
31.80
4.08
-22.55
-46.46
-66.69
-83.20
-96.80
-108.79
-120.47
-132.54
-144.89
-156.72
-167.04
-175.11
-180.78
-184.45
-186.78
-188.41
-189.78
-191.09
-192.45
-193.96
-195.76
-197.98
-200.63
-203.49
-206.14
-207.85
-207.72
-204.80
-198.17
-187.22
-171.73
-152.03
-128.96
-103.86
-78.41
-54.25
-32.75
-14.66
-0.10
11.35
20.21
26.73
30.72
31.62
28.90
22.44
12.80
1.16
-11.01
-22.37
-32.01
-39.60
-45.17
-49.01
-51.40
-52.56
-52.60
-51.57
-49.47
-46.21
-41.65
-35.70
-28.42
-20.06
-11.05
-1.72
7.80
17.76
28.71
41.19
55.47
71.28
87.84
103.96
118.27
129.39
136.19
137.87
134.10
125.16
111.89
95.68
78.22
61.24
46.08
33.47
23.40
15.19
7.78
0.09
-8.63
-18.55
-29.31
-40.12
-50.12
-58.60
-65.23
-70.07
-73.50
-76.15
-78.67
-81.67
-85.44
-89.78
-93.82
-96.11
-94.86
-88.48
-76.11
-57.90
-35.05
-9.46
16.78
41.84
64.43
83.79
99.52
111.44
119.56
124.05
125.38
124.24
121.49
117.86
113.85
109.62
105.07
100.02
94.38
88.36
82.36
76.90
72.42
69.15
67.04
65.76
64.84
63.70
61.69
58.17
52.73
45.48
37.25
29.73
25.12
25.49
32.11
45.00
62.88
83.60
104.85
124.63
141.54
154.68
163.42
167.33
166.11
159.78
148.83
134.18
117.06
98.72
80.16
61.99
44.34
27.08
9.98
-7.14
-24.22
-41.10
-57.55
-73.38
-88.50
-102.86
-116.43
-129.23
-141.27
-152.62
-163.13
-172.22
-178.75
-180.94
-176.89
-165.15
-145.37
-118.57
-86.97
-53.45
-20.78
8.84
34.02
54.13
69.01
78.75
83.65
84.19
81.04
75.08
67.21
58.21
48.59
38.61
28.32
17.78
7.16
-3.22
-12.96
-21.79
-29.74
-37.16
-44.59
-52.62
-61.71
-72.07
-83.52
-95.41
-106.56
-115.40
-120.19
-119.48
-112.52
-99.53
-81.72
-61.01
-39.49
-19.08
-1.20
13.31
24.02
30.84
33.93
33.66
30.68
25.90
20.34
14.93
10.31
6.64
3.70
1.03
-1.81
-5.00
-8.41
-11.77
-14.81
-17.54
-20.24
-23.42
-27.64
-33.27
-40.30
-48.18
-55.84
-61.80
-64.40
-62.25
-54.56
-41.42
-23.90
-3.79
16.76
35.71
51.45
62.96
69.75
71.82
69.52
63.57
54.96
44.91
34.60
24.96
16.48
9.12
2.50
-3.84
-10.18
-16.52
-22.63
-28.24
-33.31
-38.12
-43.33
-49.73
-58.02
-68.43
-80.51
-92.91
-103.58
-110.14
-110.47
-103.45
-89.37
-69.94
-47.90
-26.21
-7.34
7.17
16.71
21.35
21.49
17.62
10.36
0.46
-11.26
-24.06
-37.43
-51.26
-65.68
-80.90
-97.01
-113.90
-131.24
-148.72
-166.13
-183.43
-200.73
-218.23
-235.99
-253.75
-270.60
-284.89
-294.42
-297.02
-291.34
-277.39
-256.72
-231.92
-205.85
-180.81
-158.07
-137.91
-119.92
-103.49
-87.95
-72.75
-57.39
-41.43
-24.57
-6.85
11.41
29.72
47.62
65.02
82.34
100.39
119.97
141.30
163.59
184.99
203.07
215.55
221.15
220.13
214.32
206.70
200.70
199.44
205.08
218.47
238.96
264.75
293.20
321.59
347.55
369.54
386.87
399.57
408.08
413.17
415.72
416.68
416.89
416.91
416.86
416.36
414.69
411.03
404.74
395.44
382.95
367.14
347.78
324.57
297.29
266.12
231.80
195.89
160.60
128.63
102.70
84.97
76.38
76.25
82.38
91.73
101.45
109.82
116.68
123.06
130.21
138.62
147.52
155.14
159.44
159.02
153.61
144.09
131.96
118.74
105.52
92.85
80.87
69.59
59.13
49.73
41.61
34.74
28.64
22.32
14.55
4.18
-9.48
-26.36
-45.75
-66.55
-87.75
-108.72
-129.46
-150.42
-172.29
-195.80
-221.62
-250.21
-281.55
-314.73
-347.62
-377.04
-399.53
-412.49
-415.23
-409.21
-397.35
-382.67
-367.12
-350.99
-333.46
-313.60
-291.31
-267.69
-244.61
-224.01
-207.18
-194.49
-185.46
-178.89
-172.95
-165.45
-154.10
-137.00
-113.28
-83.45
-49.42
-14.07
19.32
47.82
69.30
82.61
87.67
85.30
76.88
64.00
48.07
30.10
10.70
-9.69
-30.43
-50.52
-68.70
-83.70
-94.68
-101.48
-104.60
-105.08
-104.23
-103.31
-103.32
-104.66
-106.91
-108.75
-108.07
-102.49
-90.02
-69.87
-42.87
-11.34
21.53
52.72
80.18
103.31
122.59
139.11
153.99
167.97
181.53
194.93
208.32
221.44
233.38
242.51
246.68
243.96
233.21
214.44
188.80
158.00
123.70
87.21
49.36
10.80
-27.74
-65.14
-99.93
-130.42
-154.99
-172.35
-181.83
-183.56
-178.58
-168.76
-156.44
-143.95
-133.14
-125.07
-120.00
-117.72
-117.88
-120.35
-125.21
-132.79
-143.35
-156.88
-172.86
-190.23
-207.48
-222.98
-235.37
-243.89
-248.65
-250.50
-250.75
-250.84
-251.98
-254.95
-259.88
-266.16
-272.28
-276.07
-275.25
-268.10
-254.21
-234.68
-211.78
-188.18
-166.11
-146.84
-130.67
-117.31
-106.30
-97.31
-90.03
-84.03
-78.66
-73.15
-66.78
-59.25
-50.65
-41.32
-31.63
-21.56
-10.62
2.07
17.51
36.40
58.89
84.57
112.62
142.12
172.49
203.54
235.54
269.10
304.97
343.83
385.99
431.03
477.50
522.98
564.48
599.24
625.43
642.54
651.11
652.13
646.44
634.28
615.59
590.46
559.64
524.60
487.26
449.28
411.64
374.47
337.26
299.48
261.00
222.41
184.82
149.36
116.49
85.65
55.30
23.53
-11.11
-48.93
-88.96
-129.43
-168.53
-205.24
-239.76
-273.39
-308.17
-346.54
-390.90
-443.04
-502.97
-567.72
-630.86
-683.52
-716.88
-725.30
-708.49
-671.51
-622.55
-569.66
-518.07
-469.43
-422.99
-377.48
-332.55
-288.84
-247.15
-207.57
-169.28
-131.20
-92.85
-54.75
-18.21
15.43
45.49
72.32
97.07
121.15
145.63
171.08
197.67
225.37
254.23
284.36
315.76
348.10
380.63
412.34
442.16
469.17
492.66
512.04
526.72
536.10
539.66
537.26
529.28
516.57
500.19
480.94
459.07
434.22
405.81
373.56
337.90
300.15
262.19
225.78
192.03
160.92
131.43
102.05
71.30
38.38
3.35
-33.05
-69.78
-105.99
-141.35
-176.19
-211.33
-248.02
-287.60
-331.14
-378.71
-428.62
-477.16
-519.14
-549.36
-564.44
-564.24
-552.09
-533.61
-514.65
-499.34
-489.04
-482.52
-476.98
-469.32
-457.13
-439.09
-414.98
-385.55
-352.14
-316.40
-279.97
-244.24
-210.22
-178.69
-150.10
-124.73
-102.51
-82.85
-64.59
-46.24
-26.28
-3.72
21.62
49.16
77.92
107.06
136.36
166.41
198.40
233.83
274.22
321.02
375.34
437.19
504.56
572.77
634.71
682.50
709.92
714.59
698.69
667.91
629.09
587.86
547.48
509.01
472.52
438.18
406.42
377.46
350.67
324.39
296.62
266.00
232.67
198.22
165.15
135.52
109.99
87.50
65.62
41.71
14.02
-17.55
-51.64
-86.06
-118.91
-149.34
-177.76
-205.65
-235.01
-267.95
-306.07
-349.57
-396.26
-441.06
-476.61
-495.14
-491.25
-463.93
-417.21
-358.53
-296.05
-236.05
-181.70
-133.58
-91.13
-53.91
-21.83
5.40
28.92
50.96
74.06
100.01
129.09
160.10
190.88
219.28
243.83
263.84
279.13
289.49
294.41
293.19
285.35
271.18
251.95
229.74
206.83
185.01
165.10
146.92
129.71
112.66
95.46
78.48
62.50
48.20
35.66
24.19
12.40
-1.16
-17.54
-36.93
-58.73
-81.95
-105.75
-129.86
-154.70
-181.19
-210.55
-244.15
-283.39
-328.97
-379.83
-432.15
-479.21
-512.79
-525.78
-514.87
-481.97
-433.49
-377.81
-322.33
-271.49
-226.65
-187.36
-152.89
-123.05
-98.02
-77.60
-60.80
-46.05
-32.03
-18.31
-5.39
5.91
15.35
23.95
33.93
47.98
68.11
94.70
126.10
159.02
189.52
214.11
230.73
238.90
239.47
233.71
222.57
206.14
183.81
154.87
119.33
78.31
33.97
-11.16
-55.13
-97.14
-137.71
-178.43
-221.52
-269.15
-322.83
-382.41
-445.36
-506.55
-559.11
-596.21
-613.31
-609.64
-588.40
-555.44
-517.18
-478.76
-443.24
-411.84
-384.83
-362.23
-343.99
-329.71
-318.37
-308.36
-297.99
-286.08
-272.27
-257.13
-241.68
-226.89
-213.13
-200.07
-186.91
-172.79
-157.26
-140.48
-123.22
-106.49
-91.15
-77.57
-65.49
-54.22
-42.93
-31.00
-18.19
-4.79
8.74
21.86
34.34
46.26
58.02
70.11
82.83
96.14
109.54
122.24
133.40
142.43
149.20
154.03
157.53
160.30
162.64
164.39
165.06
164.13
161.43
157.40
153.10
149.92
149.07
151.17
155.98
162.61
169.93
177.14
184.07
191.35
200.17
212.04
228.45
250.34
277.42
307.51
336.44
358.69
368.97
364.08
344.24
313.13
276.54
240.26
208.09
181.09
158.07
137.04
116.63
96.83
78.87
64.39
54.65
49.97
49.74
52.75
57.69
63.50
69.47
75.07
79.75
82.83
83.53
81.14
75.25
65.78
53.06
37.68
20.52
2.62
-14.81
-30.56
-43.56
-52.95
-58.16
-58.99
-55.50
-48.04
-37.21
-23.74
-8.52
7.57
23.62
38.69
51.79
62.05
69.03
73.17
76.03
80.07
87.85
101.12
119.97
142.69
166.39
187.97
205.19
217.12
224.07
227.00
226.91
224.42
219.85
213.40
205.45
196.67
187.98
180.28
174.15
169.61
165.98
162.03
156.28
147.54
135.37
120.39
104.11
88.45
75.06
64.69
56.95
50.56
43.80
35.26
24.54
12.64
1.92
-4.60
-4.21
4.38
20.35
40.69
61.05
76.94
85.15
84.66
76.87
64.94
52.53
42.46
35.68
31.08
26.17
18.22
5.59
-11.47
-30.78
-49.02
-63.02
-70.93
-72.78
-70.17
-65.48
-60.90
-57.80
-56.81
-58.28
-62.81
-71.50
-85.54
-105.28
-129.39
-154.49
-175.71
-188.16
-188.66
-176.92
-155.68
-129.55
-103.12
-79.25
-58.31
-38.78
-18.70
2.98
25.86
48.61
69.76
88.28
103.24
113.18
115.83
108.98
91.85
66.45
37.31
9.79
-12.29
-28.25
-40.34
-51.88
-65.15
-80.20
-95.21
-107.92
-116.68
-120.77
-119.86
-113.46
-101.08
-82.97
-60.75
-37.38
-16.15
0.64
12.34
19.61
23.43
24.25
21.98
16.59
8.93
0.87
-5.32
-7.97
-6.66
-2.21
3.95
10.51
16.64
21.81
25.33
26.16
22.88
14.07
-1.26
-23.46
-51.92
-84.94
-119.69
-152.37
-178.94
-196.08
-202.24
-197.98
-185.73
-168.86
-150.67
-133.88
-120.64
-112.58
-110.53
-113.91
-120.16
-124.96
-123.43
-111.77
-88.78
-56.11
-17.53
22.65
60.90
95.19
124.63
148.76
166.91
178.08
181.34
176.56
164.71
147.79
128.33
108.50
89.48
71.21
52.81
33.51
13.48
-5.92
-22.75
-35.52
-44.06
-49.38
-52.62
-53.80
-51.28
-42.55
-25.81
-1.54
27.22
55.97
80.78
99.96
114.44
126.57
138.31
149.79
159.12
163.41
160.17
148.32
128.31
101.35
68.64
31.13
-10.12
-53.35
-95.14
-130.68
-155.35
-166.38
-164.26
-152.75
-137.54
-124.29
-117.01
-116.88
-122.50
-131.19
-140.19
-147.62
-152.71
-155.27
-155.62
-154.50
-152.18
-148.28
-142.33
-133.89
-122.76
-108.97
-91.89
-71.10
-47.57
-21.94
5.53
33.93
61.63
86.46
106.25
121.02
131.54
137.34
140.29
144.31
152.49
165.95
183.27
200.78
216.13
226.61
226.64
214.82
194.85
172.33
153.68
144.71
149.27
171.09
209.09
252.79
291.83
319.49
331.62
327.93
311.83
269.77
198.96
132.64
83.11
43.12
8.43
-24.73
-58.79
-94.46
-130.86
-163.18
-187.80
-208.05
-226.26
-242.10
-254.96
-263.45
-265.57
-259.62
-242.94
-215.71
-184.57
-155.31
-131.12
-114.30
-106.06
-106.35
-113.71
-123.93
-132.28
-136.85
-135.71
-127.78
-114.66
-99.59
-85.89
-75.22
-66.86
-59.26
-52.18
-45.63
-40.07
-36.34
-34.26
-31.99
-26.19
-13.62
7.21
35.20
67.86
101.69
133.04
158.86
177.09
186.95
187.93
180.15
164.19
144.12
126.40
116.83
117.47
124.26
133.80
143.28
150.18
152.38
150.07
143.50
133.51
121.51
109.24
98.40
89.22
80.49
70.40
57.52
40.97
20.80
-2.28
-27.21
-53.01
-79.72
-108.08
-139.06
-173.48
-212.53
-257.29
-307.82
-361.61
-412.77
-453.32
-475.80
-476.66
-458.40
-429.07
-398.58
-373.98
-356.32
-341.12
-322.12
-295.62
-262.65
-227.73
-195.45
-167.28
-140.91
-112.56
-80.32
-46.22
-15.20
7.70
20.61
25.76
28.14
32.60
41.35
53.30
65.09
73.27
76.08
74.29
70.74
69.24
73.10
84.19
102.49
126.17
152.16
176.70
195.84
205.66
202.53
184.15
150.98
107.64
62.98
28.10
12.88
21.95
52.37
94.22
134.11
160.34
167.29
157.20
138.58
122.31
116.80
124.75
142.36
161.21
171.51
165.41
138.96
92.76
31.21
-38.68
-108.53
-169.85
-215.39
-240.38
-243.46
-226.96
-196.23
-158.09
-119.10
-84.11
-55.65
-34.30
-19.49
-10.24
-5.57
-4.73
-7.06
-11.97
-18.81
-26.83
-35.20
-42.83
-48.36
-50.41
-48.07
-41.24
-30.99
-19.44
-9.19
-2.73
-1.67
-6.43
-16.08
-28.54
-41.18
-51.36
-57.14
-57.58
-52.92
-44.40
-33.90
-23.26
-13.71
-5.47
2.31
10.99
21.63
34.37
48.06
60.72
70.19
74.92
74.34
68.88
59.58
47.85
35.27
23.37
13.36
5.66
-0.49
-6.92
-15.90
-28.95
-45.88
-64.37
-80.86
-91.84
-95.37
-91.70
-83.00
-72.17
-61.59
-52.23
-43.55
-34.04
-22.17
-7.14
10.71
29.96
48.54
64.31
75.78
82.51
85.23
85.52
85.07
84.86
84.87
84.12
81.17
74.71
64.13
49.64
32.51
14.79
-1.10
-12.75
-18.44
-17.35
-10.14
1.19
13.84
25.33
34.10
39.78
42.80
43.79
43.47
42.41
41.20
40.59
41.65
45.06
50.72
57.77
64.80
71.10
76.64
81.69
86.56
92.09
98.25
104.10
108.24
109.08
107.28
104.80
103.88
106.25
114.28
128.05
144.98
160.68
169.72
171.40
168.63
166.30
169.79
185.99
217.83
262.95
314.06
359.53
392.28
408.92
409.00
395.13
375.81
358.84
348.56
344.46
339.69
330.92
316.88
297.53
247.49
155.13
25.58
-120.62
-241.21
-333.47
-403.88
-457.24
-498.26
-524.75
-530.30
-513.17
-478.72
-437.79
-404.46
-383.57
-373.15
-368.17
-363.57
-354.12
-338.18
-316.84
-292.05
-267.08
-240.37
-209.79
-175.32
-138.59
-100.25
-61.03
-21.58
16.99
51.73
81.98
107.93
129.61
146.68
158.55
163.26
158.08
140.92
111.28
72.92
32.19
-4.40
-32.07
-48.72
-54.93
-52.91
-45.14
-33.95
-20.67
-6.30
8.09
21.56
33.64
44.56
55.06
65.87
77.20
88.68
99.53
109.13
117.43
124.95
132.37
140.06
147.94
155.68
163.27
171.34
180.94
192.93
207.26
222.64
236.98
248.17
254.95
257.23
255.87
252.02
246.55
239.86
232.16
223.82
215.66
208.68
203.70
200.80
199.21
197.45
193.83
186.94
176.02
161.02
142.49
121.38
98.86
76.10
54.22
34.18
16.79
2.63
-8.00
-15.09
-18.91
-20.01
-19.05
-16.69
-13.51
-9.89
-6.02
-1.91
1.90
5.06
7.59
10.33
13.31
16.07
17.81
17.91
15.98
11.30
3.63
-6.48
-17.37
-27.93
-37.52
-45.91
-52.96
-58.60
-64.25
-70.85
-78.15
-83.59
-86.36
-86.79
-86.14
-85.45
-85.52
-90.68
-103.42
-122.75
-141.03
-155.43
-166.24
-176.20
-187.61
-202.04
-228.43
-271.62
-329.06
-384.20
-429.87
-464.92
-493.03
-517.02
-538.89
-572.69
-626.63
-697.97
-762.33
-810.55
-842.82
-866.53
-887.29
-909.39
-953.11
-1031.54
-1142.55
-1253.71
-1348.23
-1417.58
-1461.07
-1477.73
-1361.66
-1067.49
-629.58
-244.63
41.80
234.75
381.39
499.47
598.79
684.80
743.52
765.90
756.03
744.71
743.50
753.22
765.41
773.22
771.98
746.98
691.73
613.76
542.34
491.35
463.88
459.43
472.90
494.74
506.55
492.21
456.46
419.66
391.06
373.56
360.22
343.34
317.65
278.22
225.40
165.32
109.07
61.53
23.55
-10.50
-46.94
-90.14
-142.49
-203.50
-270.06
-339.07
-409.98
-464.62
-487.48
-470.26
-417.32
-342.08
-260.40
-183.89
-120.88
-74.97
-44.76
-29.62
-25.43
-28.61
-35.52
-42.51
-43.11
-32.55
-8.43
29.26
76.99
128.50
178.53
224.44
265.65
306.73
350.90
398.38
446.24
488.50
519.46
535.33
535.24
499.56
422.45
311.97
186.98
66.94
-36.69
-120.84
-187.44
-237.50
-276.71
-304.86
-321.35
-327.09
-324.95
-318.60
-310.75
-303.62
-297.89
-293.80
-287.86
-277.63
-262.64
-244.39
-225.11
-206.66
-190.13
-175.77
-163.74
-151.71
-137.95
-121.88
-104.11
-85.77
-67.97
-51.52
-36.86
-24.38
-13.05
-1.86
9.98
23.15
38.53
57.32
80.57
108.48
139.67
171.69
201.19
224.98
241.14
249.56
251.77
250.16
246.95
243.48
240.00
235.81
229.84
221.13
209.38
195.21
180.11
166.10
155.28
149.39
149.30
154.66
163.65
173.06
178.87
177.44
166.82
147.72
123.32
98.21
76.64
61.09
51.89
47.84
47.39
49.61
54.68
63.54
77.18
96.20
120.50
149.26
180.81
212.19
239.14
256.50
259.44
245.26
214.81
172.88
126.93
84.57
50.75
26.28
8.12
-8.42
-27.35
-50.17
-75.48
-100.12
-120.87
-135.90
-145.28
-150.48
-152.93
-153.79
-153.72
-152.73
-150.17
-144.63
-134.18
-116.93
-91.75
-57.95
-17.06
27.41
71.15
110.56
143.73
170.28
190.51
204.82
215.11
222.81
228.97
234.33
239.56
244.97
250.02
252.84
251.16
245.07
235.01
221.68
205.83
188.47
170.69
153.28
136.22
105.94
57.36
-5.21
-69.64
-123.38
-159.60
-178.07
-181.86
-177.95
-171.75
-164.99
-158.86
-154.90
-155.57
-162.32
-176.38
-198.32
-228.40
-266.30
-310.04
-358.69
-412.49
-471.94
-535.55
-598.37
-651.92
-686.46
-694.19
-671.36
-620.77
-550.34
-470.21
-389.41
-314.38
-249.19
-196.48
-157.68
-131.88
-115.84
-104.10
-90.84
-72.27
-48.23
-21.96
1.99
20.09
31.48
37.57
40.73
43.13
46.39
51.86
60.83
74.29
92.05
112.33
132.02
147.89
157.99
162.45
163.12
162.35
161.79
161.58
160.66
157.65
151.79
143.66
135.31
129.86
130.32
138.48
153.69
172.51
189.75
200.10
200.29
190.31
173.20
153.58
135.75
122.25
113.59
109.03
107.62
108.83
112.63
118.85
126.82
135.42
143.56
150.79
157.59
164.90
173.31
182.26
189.80
193.12
189.79
179.04
162.44
143.71
127.70
118.97
120.78
134.43
159.16
192.31
229.47
264.99
292.79
307.81
307.33
291.94
265.27
232.78
199.96
170.83
147.27
129.23
115.56
104.75
95.57
87.15
78.98
70.77
62.26
53.10
42.61
29.77
13.35
-7.75
-34.10
-65.46
-100.94
-139.19
-178.96
-219.36
-260.02
-301.01
-343.00
-387.28
-435.35
-487.88
-543.11
-595.90
-638.09
-660.69
-657.20
-626.33
-572.80
-505.47
-434.02
-365.47
-302.74
-245.16
-190.57
-137.28
-85.00
-34.42
13.86
59.97
104.73
148.84
192.20
233.74
271.61
303.99
329.60
347.71
357.78
359.04
350.39
330.93
300.63
260.98
215.23
167.75
122.99
84.25
52.76
27.54
5.98
-14.79
-36.58
-58.96
-79.20
-93.48
-98.72
-94.09
-81.48
-64.49
-46.43
-28.54
-9.57
12.96
40.40
71.14
100.23
120.91
127.27
116.51
89.74
51.13
6.14
-40.00
-83.02
-119.64
-147.58
-165.81
-175.18
-178.68
-180.69
-185.48
-195.35
-209.52
-224.52
-236.03
-241.04
-239.45
-233.80
-227.54
-222.69
-218.40
-211.30
-197.36
-174.22
-142.52
-105.61
-67.62
-31.35
2.81
36.34
70.99
107.10
142.86
174.89
199.46
213.65
216.20
207.43
189.00
163.43
133.55
101.98
70.86
41.69
15.51
-6.71
-23.88
-34.83
-39.01
-37.31
-32.62
-29.40
-32.47
-45.12
-67.78
-97.64
-129.53
-157.55
-176.75
-184.23
-179.46
-163.91
-140.43
-112.46
-83.28
-55.48
-30.44
-8.20
12.51
33.80
57.85
86.13
118.83
154.74
191.47
226.00
255.20
276.32
287.43
287.65
277.34
258.20
233.16
205.74
179.32
156.08
136.42
118.94
101.00
79.26
50.61
12.93
-33.64
-85.62
-135.81
-174.41
-191.75
-181.96
-145.75
-90.82
-29.50
25.47
64.84
84.70
85.97
72.17
47.21
14.40
-23.31
-62.46
-98.84
-128.14
-147.31
-155.59
-154.81
-148.88
-142.17
-138.12
-138.23
-141.81
-146.52
-149.54
-148.63
-142.64
-131.48
-115.36
-94.27
-67.71
-35.03
4.31
50.35
102.58
159.85
220.11
280.03
334.96
379.60
409.42
422.38
419.78
405.87
386.27
366.00
348.12
333.42
321.06
309.54
297.41
283.37
266.19
244.81
218.58
187.81
153.93
119.28
86.33
56.80
31.03
7.91
-14.46
-37.96
-63.64
-91.54
-120.92
-150.91
-181.08
-211.80
-244.19
-279.99
-321.34
-370.00
-426.04
-486.51
-544.87
-591.98
-618.72
-619.29
-593.42
-546.46
-487.17
-424.22
-363.35
-306.47
-252.73
-200.59
-149.39
-99.55
-51.79
-6.15
38.24
82.40
126.40
168.81
207.07
238.29
260.67
274.16
280.35
281.80
280.98
279.34
277.11
273.49
267.22
257.27
243.30
225.82
206.10
185.61
165.57
146.53
128.24
109.93
90.79
70.34
48.71
26.69
5.60
-12.99
-27.61
-37.39
-42.34
-43.37
-41.78
-38.61
-34.02
-27.11
-16.42
-0.78
19.88
44.25
70.04
94.83
116.76
134.80
148.49
157.34
160.55
157.18
146.76
129.91
108.43
84.96
61.82
40.05
19.40
-1.16
-22.56
-44.95
-67.63
-89.65
-110.00
-127.34
-139.35
-142.49
-133.08
-109.44
-74.11
-34.28
-0.06
19.30
19.01
0.14
-31.55
-69.03
-107.25
-144.76
-182.79
-223.06
-265.76
-308.91
-349.41
-384.63
-413.37
-435.59
-451.39
-460.38
-461.71
-454.73
-439.91
-419.06
-394.89
-370.18
-346.86
-325.60
-305.86
-286.19
-264.61
-239.24
-209.01
-174.19
-136.82
-100.10
-67.30
-40.56
-19.98
-3.72
11.10
27.21
46.29
68.53
92.89
117.53
140.51
160.34
176.30
188.28
196.42
200.74
200.91
196.50
187.44
174.42
158.92
142.74
127.41
113.81
101.99
91.39
81.08
69.98
57.00
41.41
23.47
4.96
-10.69
-19.38
-17.69
-4.53
18.20
45.90
72.76
93.30
103.56
101.48
86.70
60.33
24.83
-16.09
-57.82
-95.58
-125.61
-146.11
-157.47
-161.68
-161.24
-158.08
-153.19
-146.78
-138.72
-128.94
-117.35
-103.70
-87.52
-68.41
-46.43
-22.23
3.17
28.75
53.77
77.68
99.85
119.13
134.21
144.30
149.79
152.46
154.62
157.88
162.23
165.86
165.96
160.01
146.78
126.55
101.03
72.81
45.02
20.77
2.63
-8.16
-12.23
-12.03
-11.13
-12.73
-18.33
-27.03
-35.87
-41.00
-39.18
-28.76
-10.10
15.00
44.26
75.91
109.22
144.34
181.67
220.88
260.31
296.75
326.08
344.28
348.64
338.53
315.66
283.54
246.68
209.31
174.66
144.47
118.93
97.04
76.76
55.24
28.75
-6.73
-54.18
-113.68
-180.84
-246.99
-301.36
-334.73
-342.82
-327.82
-297.10
-259.98
-224.12
-193.47
-168.43
-147.48
-129.19
-113.02
-98.97
-86.74
-75.28
-63.45
-50.97
-39.06
-30.01
-26.23
-28.87
-37.15
-48.64
-60.28
-69.41
-74.37
-74.52
-69.73
-60.07
-45.63
-26.53
-2.97
24.77
56.27
90.82
127.01
162.42
193.84
217.96
232.57
237.39
234.18
225.74
214.44
201.07
184.56
162.76
133.66
96.68
53.34
7.08
-37.45
-75.54
-103.46
-119.22
-123.01
-117.10
-105.08
-90.93
-77.73
-67.03
-58.72
-51.69
-44.68
-37.07
-29.27
-22.52
-18.21
-17.23
-19.37
-23.46
-27.87
-31.41
-33.75
-35.61
-38.19
-42.58
-49.17
-57.57
-66.85
-75.98
-84.17
-90.91
-95.74
-98.11
-97.47
-93.72
-87.56
-80.70
-75.36
-73.41
-75.35
-79.79
-83.70
-83.47
-76.32
-61.35
-39.79
-14.39
11.71
35.93
56.69
73.24
85.19
92.25
94.59
93.26
90.39
88.78
90.64
96.46
104.29
110.32
110.61
103.01
88.17
69.26
50.39
34.95
24.69
19.45
17.87
18.30
19.44
20.65
21.89
23.76
27.38
34.39
46.06
62.65
83.11
105.43
127.24
146.52
162.01
173.32
181.54
187.66
192.06
194.67
195.46
194.92
193.90
193.14
193.15
195.70
201.42
209.61
218.88
228.14
237.25
246.68
256.42
266.05
277.06
289.28
300.71
308.42
310.37
306.58
298.96
289.89
281.96
280.06
285.73
296.18
305.60
308.44
302.11
287.70
268.39
225.64
153.99
61.93
-31.65
-109.47
-163.71
-194.86
-204.94
-202.30
-193.29
-179.45
-163.00
-147.83
-138.89
-139.04
-148.52
-165.58
-188.40
-215.11
-242.02
-267.48
-292.15
-318.35
-348.15
-381.90
-417.59
-451.45
-477.96
-490.09
-483.48
-458.09
-418.19
-370.28
-320.59
-273.28
-230.24
-191.27
-154.87
-120.52
-89.16
-62.64
-42.30
-28.17
-18.85
-12.38
-6.78
-0.75
5.60
10.98
13.74
12.77
8.24
1.54
-5.35
-10.68
-13.73
-14.93
-15.41
-16.23
-17.79
-19.69
-21.13
-21.37
-20.07
-17.25
-12.96
-6.86
1.77
13.79
29.63
48.99
70.69
93.04
114.33
133.37
149.69
163.50
175.31
185.52
194.23
201.22
206.34
209.84
212.54
215.72
220.59
227.64
236.31
244.99
251.51
253.75
250.22
240.35
224.50
203.64
179.14
152.37
124.54
96.63
69.31
43.16
18.66
-3.76
-23.79
-41.48
-57.38
-72.55
-88.33
-106.12
-126.96
-151.36
-178.94
-208.34
-237.27
-263.03
-283.27
-296.68
-303.36
-304.56
-301.94
-296.82
-289.59
-279.80
-266.57
-249.37
-228.61
-205.97
-184.27
-166.86
-156.59
-154.77
-160.48
-170.70
-181.05
-187.20
-186.12
-176.73
-159.92
-137.83
-113.08
-87.89
-63.74
-41.38
-21.17
-3.26
12.26
25.61
37.74
50.32
65.40
84.43
107.39
132.38
156.28
176.03
189.98
198.56
203.86
208.63
215.00
223.87
234.97
247.55
261.05
275.31
290.21
305.11
318.34
327.32
329.20
321.89
304.85
279.19
247.00
210.22
169.93
126.43
80.20
33.26
-10.18
-44.24
-63.41
-65.17
-51.89
-30.84
-12.07
-4.71
-13.87
-39.06
-75.30
-115.78
-154.91
-190.05
-221.54
-251.51
-282.55
-316.69
-354.90
-396.55
-438.74
-476.18
-501.87
-508.97
-493.23
-454.57
-397.24
-328.64
-257.17
-190.42
-134.18
-92.07
-65.59
-54.13
-55.13
-64.44
-77.36
-89.66
-98.40
-102.13
-100.40
-93.30
-81.19
-64.76
-45.08
-23.61
-1.77
19.45
39.71
59.12
77.72
95.05
110.03
121.30
127.90
129.91
128.61
126.04
124.24
124.39
126.39
129.08
130.92
130.75
128.44
124.89
121.62
120.06
120.94
124.09
128.55
133.16
136.95
139.51
140.89
141.49
142.00
143.65
148.43
158.98
177.70
205.40
240.11
277.10
310.08
333.45
344.37
343.62
334.77
322.26
309.39
297.28
285.07
271.20
254.55
235.14
213.86
191.80
169.56
146.82
122.54
95.31
63.94
27.98
-12.10
-55.07
-99.48
-144.07
-188.29
-232.27
-276.62
-322.13
-369.77
-420.66
-475.85
-535.25
-596.39
-653.57
-698.56
-722.83
-720.71
-691.76
-641.19
-577.82
-510.77
-446.54
-387.80
-334.13
-283.82
-235.67
-189.72
-146.98
-108.75
-76.01
-49.14
-28.16
-12.79
-2.50
3.22
4.99
3.42
-0.92
-7.60
-16.37
-27.19
-39.98
-54.17
-68.23
-79.52
-84.78
-81.07
-66.95
-43.06
-12.15
21.76
54.46
82.49
103.80
117.86
125.42
128.07
127.71
125.91
123.35
119.63
113.53
103.89
90.49
74.58
58.66
45.56
37.30
34.26
35.25
38.07
40.56
41.24
39.54
35.56
29.52
21.48
11.45
-0.01
-11.38
-20.04
-22.88
-17.25
-1.95
22.31
53.02
86.78
120.18
150.61
176.59
197.56
213.52
224.79
231.96
235.94
238.06
239.85
242.70
247.52
254.44
262.77
271.33
279.00
285.37
291.03
297.37
305.78
316.41
327.36
334.63
333.18
318.69
289.33
246.74
195.61
142.02
91.33
46.50
7.46
-28.18
-64.02
-103.42
-148.40
-198.88
-252.19
-302.98
-344.17
-368.52
-370.81
-349.62
-307.78
-251.34
-187.25
-121.05
-55.40
9.83
76.08
144.38
213.86
281.31
341.69
389.53
420.48
432.59
426.95
407.13
378.14
344.86
310.98
278.59
248.57
221.04
195.84
172.41
149.57
125.54
98.34
66.55
30.05
-10.06
-52.16
-95.12
-138.79
-183.55
-228.97
-272.69
-310.18
-335.78
-344.85
-335.80
-311.07
-276.68
-240.71
-211.43
-195.90
-199.14
-223.55
-268.21
-328.09
-393.89
-453.42
-494.82
-510.23
-498.45
-465.08
-419.80
-372.10
-327.70
-286.88
-245.52
-197.71
-138.96
-68.36
10.27
89.00
157.61
206.05
227.03
217.59
179.79
120.09
48.19
-24.49
-86.72
-129.36
-147.60
-142.46
-120.81
-93.16
-70.12
-58.77
-60.79
-73.22
-90.87
-109.24
-125.84
-140.32
-153.37
-165.51
-176.59
-185.85
-192.38
-195.40
-194.52
-189.54
-180.39
-167.06
-149.68
-128.77
-105.49
-81.76
-59.84
-41.75
-28.60
-20.10
-14.81
-10.75
-6.13
0.20
8.60
18.78
29.82
40.27
48.44
52.84
52.94
49.67
45.51
43.63
46.82
56.39
71.86
91.62
113.82
137.29
161.63
186.72
212.04
236.40
258.12
275.77
288.73
297.31
302.38
304.71
304.28
300.22
291.01
275.29
252.44
223.00
188.31
149.94
109.08
66.39
22.29
-22.35
-65.71
-105.06
-137.16
-159.09
-168.82
-165.55
-149.57
-121.94
-84.28
-38.73
11.78
63.53
112.32
154.23
186.65
208.98
222.71
230.83
236.67
242.71
249.89
257.60
264.19
267.67
266.19
258.44
243.69
221.90
193.54
159.40
120.14
76.29
28.34
-22.72
-74.79
-124.60
-168.09
-201.39
-221.80
-228.43
-221.96
-204.10
-176.88
-142.41
-103.12
-62.22
-23.72
8.05
29.37
38.09
34.17
19.28
-4.01
-33.22
-66.44
-102.17
-138.80
-174.32
-206.41
-232.95
-252.69
-265.41
-271.61
-271.93
-266.66
-255.78
-239.44
-218.56
-194.94
-171.00
-149.11
-130.87
-116.89
-106.94
-100.50
-97.22
-96.96
-99.78
-105.61
-114.09
-124.61
-136.47
-148.97
-161.59
-173.91
-185.51
-195.91
-204.48
-210.53
-213.39
-212.57
-207.84
-199.28
-187.29
-172.47
-155.60
-137.51
-119.01
-100.81
-83.50
-67.46
-52.76
-39.23
-26.40
-13.67
-0.40
13.97
29.91
47.68
67.48
89.37
113.32
139.10
166.16
193.63
220.36
245.08
266.74
284.78
299.38
311.29
321.57
330.99
339.70
346.94
351.29
351.09
345.02
332.64
314.73
293.19
270.68
249.87
232.68
219.70
210.27
202.86
195.78
187.95
179.42
171.59
167.02
168.68
179.07
198.85
225.99
255.57
280.95
295.69
295.74
280.77
253.98
220.68
186.64
156.28
132.16
115.39
106.25
104.10
107.28
112.53
115.48
112.27
100.90
82.08
59.11
36.59
18.64
7.83
4.43
6.93
14.02
24.72
38.40
54.30
71.05
86.26
97.76
103.86
104.25
102.61
103.30
109.16
120.50
136.24
154.81
177.46
205.61
238.79
278.08
320.66
359.51
385.83
393.47
379.72
349.96
311.47
270.29
238.04
223.33
228.46
248.84
276.26
299.67
315.84
324.29
326.26
334.41
360.26
407.40
469.20
533.20
583.43
615.42
629.96
570.50
410.43
163.84
-117.89
-378.49
-560.08
-680.62
-763.17
-822.50
-864.54
-883.84
-871.12
-824.83
-754.32
-675.26
-606.78
-556.31
-526.07
-515.41
-514.08
-511.78
-502.96
-487.63
-468.20
-449.51
-430.02
-408.84
-387.39
-363.40
-334.46
-300.05
-262.11
-223.84
-190.13
-161.44
-137.21
-116.41
-95.34
-70.62
-41.84
-12.16
13.34
29.11
33.59
28.07
15.78
1.54
-10.51
-18.54
-23.17
-26.16
-29.51
-33.61
-37.74
-40.66
-41.35
-39.60
-36.25
-32.74
-30.17
-29.19
-29.87
-31.57
-32.95
-32.17
-27.60
-18.41
-4.98
11.78
30.10
48.09
64.49
79.09
92.57
105.70
118.70
131.36
144.08
157.10
170.06
181.77
190.08
192.39
186.41
171.14
144.35
109.99
77.05
55.19
49.38
58.13
76.46
99.16
122.60
145.09
166.63
187.02
205.48
220.59
230.89
236.07
236.69
233.66
227.66
219.04
206.89
188.65
164.34
133.94
98.51
59.92
20.43
-17.85
-52.95
-83.66
-109.46
-130.27
-146.34
-157.67
-164.11
-165.65
-162.59
-155.45
-145.13
-132.78
-119.48
-106.33
-93.95
-82.57
-72.20
-62.72
-53.93
-45.58
-37.97
-31.16
-24.92
-18.69
-11.90
-4.27
4.13
13.12
22.41
31.21
39.08
45.90
51.92
57.37
62.26
66.40
69.62
71.76
71.62
68.66
63.37
57.01
50.76
45.15
40.11
35.49
31.02
23.13
9.83
-8.27
-28.47
-48.28
-66.86
-84.77
-102.56
-121.05
-147.33
-184.86
-231.20
-279.49
-323.15
-359.21
-388.02
-410.51
-429.18
-456.97
-501.44
-561.05
-626.91
-689.91
-745.88
-795.27
-839.48
-882.55
-941.86
-1026.71
-1132.28
-1241.31
-1334.05
-1396.96
-1424.99
-1418.65
-1293.14
-1019.57
-636.26
-229.00
126.63
398.06
587.99
702.57
773.40
821.33
843.97
838.88
811.09
773.10
737.81
711.19
693.75
685.55
685.42
683.13
673.83
660.20
649.61
646.72
649.06
649.27
633.08
591.85
523.58
440.16
359.01
292.94
244.94
209.97
182.10
157.33
135.25
113.85
91.44
66.30
37.24
3.33
-36.01
-81.21
-132.60
-190.29
-255.14
-326.30
-399.82
-468.03
-521.39
-551.96
-556.46
-537.52
-501.74
-457.23
-410.83
-366.63
-325.69
-287.15
-249.73
-212.81
-176.71
-141.63
-107.76
-75.30
-44.74
-16.55
9.17
32.65
54.49
75.23
95.45
115.45
135.22
154.61
173.61
192.54
212.26
234.33
260.85
293.73
333.30
376.94
418.64
450.29
464.34
456.69
428.56
385.83
336.52
287.60
242.48
200.68
159.14
114.44
64.77
10.75
-44.84
-98.05
-144.96
-182.60
-209.30
-224.80
-229.75
-225.35
-213.19
-195.40
-174.75
-154.57
-138.12
-127.74
-124.12
-126.15
-131.61
-138.19
-144.51
-150.47
-156.91
-164.94
-174.99
-186.40
-197.37
-205.54
-208.72
-205.55
-195.88
-180.53
-160.84
-138.13
-113.27
-86.61
-58.25
-28.31
2.89
34.70
66.23
96.24
123.05
144.69
159.31
165.94
165.24
159.61
152.54
147.41
146.17
148.75
153.49
158.12
160.91
161.26
159.45
156.02
151.21
144.89
136.84
127.25
116.81
106.49
97.10
88.89
81.54
74.41
66.82
58.27
48.44
37.01
23.60
7.82
-10.33
-30.16
-50.03
-67.53
-79.93
-84.93
-81.34
-69.38
-50.58
-27.31
-2.09
22.83
45.77
65.42
80.74
90.83
95.08
93.48
86.74
76.32
64.10
52.00
41.67
34.23
30.27
29.80
32.34
37.02
42.65
47.96
51.78
53.21
51.78
47.59
41.32
34.30
28.35
25.41
27.08
34.19
46.51
62.90
81.69
101.20
120.01
137.11
151.70
163.22
171.23
175.51
176.05
172.94
166.35
156.40
143.44
128.15
111.82
96.06
82.44
71.98
64.91
60.73
58.51
57.25
56.07
54.21
51.09
46.40
40.31
33.61
27.56
23.55
22.70
25.55
32.23
42.80
57.50
76.58
99.64
125.03
149.65
169.65
181.82
185.08
181.17
174.04
168.14
166.38
168.99
173.71
177.40
178.01
175.93
173.76
174.83
181.32
192.82
206.33
217.47
222.30
218.75
207.15
189.70
169.31
148.57
129.15
111.85
97.11
85.42
77.42
73.73
74.51
79.14
86.27
94.11
100.98
105.81
108.38
109.27
109.49
110.13
111.98
115.34
119.90
124.89
129.30
131.98
132.02
128.88
122.46
113.01
100.86
86.15
68.58
47.43
21.90
-8.40
-43.01
-80.49
-118.80
-156.02
-191.10
-224.30
-257.12
-291.83
-330.89
-376.66
-431.18
-495.50
-568.84
-647.53
-724.85
-792.07
-840.94
-866.23
-867.47
-848.43
-815.10
-772.98
-725.38
-673.60
-618.43
-561.77
-506.93
-457.50
-415.47
-380.03
-347.91
-315.14
-279.08
-239.48
-198.37
-158.84
-123.51
-93.53
-68.28
-45.68
-23.17
1.20
27.84
55.15
79.88
98.26
107.61
107.46
99.79
88.07
75.77
65.22
57.21
51.60
47.97
46.05
45.51
45.49
44.49
40.64
32.49
19.71
3.59
-13.01
-26.35
-32.92
-30.47
-18.83
0.06
22.70
45.24
64.58
79.18
89.13
95.64
100.33
104.62
109.53
115.65
123.23
132.21
142.03
151.58
159.25
163.20
161.87
154.43
140.99
122.59
100.86
77.54
53.99
30.96
8.66
-12.83
-33.13
-51.12
-65.10
-73.13
-73.71
-66.43
-52.20
-33.05
-11.45
10.28
30.47
48.12
62.75
74.08
81.97
86.42
87.69
86.50
83.77
80.41
77.11
74.07
71.13
68.00
64.49
60.67
56.82
53.26
50.11
47.15
43.85
39.52
33.57
25.72
16.22
5.89
-3.85
-11.17
-14.29
-11.93
-3.78
9.36
25.72
43.12
59.48
73.36
84.06
91.51
95.87
97.38
96.21
92.68
87.27
80.69
73.70
66.88
60.50
54.50
48.63
42.80
37.17
32.27
28.79
27.26
27.73
29.78
32.49
34.72
35.41
33.85
29.98
24.47
18.72
14.49
13.54
17.00
25.02
36.71
50.35
64.07
76.27
85.95
92.72
96.50
97.36
95.34
90.71
84.01
76.18
68.36
61.55
56.27
52.37
49.03
45.10
39.51
31.62
21.55
10.14
-1.18
-10.81
-17.38
-20.18
-19.33
-15.85
-11.26
-7.09
-4.27
-2.89
-2.09
-0.53
3.05
9.22
17.54
26.66
34.75
40.22
42.19
40.82
37.10
32.58
28.80
27.06
28.18
32.38
39.19
47.44
55.31
60.78
62.25
59.17
52.39
43.92
36.02
30.09
25.84
21.18
13.09
-1.09
-22.41
-49.82
-80.54
-111.19
-138.74
-161.11
-177.02
-185.45
-185.36
-175.71
-156.22
-128.00
-93.80
-57.58
-23.39
5.69
28.30
44.74
56.39
64.85
71.37
76.49
80.15
81.97
81.57
78.84
74.03
67.73
60.73
53.79
47.52
42.24
38.06
34.97
32.96
32.01
32.06
32.82
33.80
34.30
33.69
31.71
28.70
25.66
24.06
25.28
30.14
38.48
49.04
59.70
67.85
70.97
67.23
55.98
37.98
15.43
-8.51
-30.40
-47.33
-57.57
-60.78
-57.65
-49.47
-37.58
-23.16
-7.37
8.50
22.98
34.50
41.71
43.83
40.79
33.13
21.86
8.08
-7.24
-23.31
-39.33
-54.32
-66.98
-75.89
-79.87
-78.29
-71.39
-60.21
-46.32
-31.52
-17.63
-6.39
0.64
2.46
-1.00
-8.70
-18.65
-28.67
-37.35
-44.50
-51.12
-58.55
-67.54
-77.75
-87.83
-96.13
-101.35
-102.86
-100.59
-94.62
-85.03
-72.11
-56.77
-40.72
-26.16
-15.01
-8.05
-4.56
-2.63
-0.03
4.86
12.47
22.13
32.59
42.69
51.78
59.71
66.60
72.42
76.86
79.34
79.36
76.66
71.52
64.71
57.34
50.64
45.69
43.22
43.50
46.29
50.86
56.13
60.91
64.25
65.46
64.11
59.80
52.02
40.31
24.78
6.52
-12.17
-28.24
-38.88
-42.42
-38.90
-29.84
-17.67
-4.80
6.87
16.21
22.73
26.37
27.34
26.04
22.95
18.58
13.47
8.02
2.43
-3.42
-10.03
-18.17
-28.56
-41.43
-56.20
-71.51
-85.62
-96.94
-104.51
-108.19
-108.40
-105.84
-101.24
-95.32
-88.85
-82.84
-78.26
-75.64
-74.68
-74.03
-71.65
-65.61
-54.90
-39.98
-22.71
-5.73
8.55
18.60
24.02
25.28
23.24
18.79
12.82
6.27
0.12
-4.84
-8.34
-10.86
-13.49
-17.36
-23.09
-30.36
-38.05
-44.76
-49.41
-51.64
-51.78
-50.60
-48.87
-47.20
-45.91
-45.05
-44.40
-43.45
-41.50
-37.78
-31.78
-23.43
-13.29
-2.38
8.14
17.38
24.91
30.80
35.34
38.81
41.32
42.79
43.11
42.23
40.19
37.28
33.73
29.74
25.42
21.28
18.08
16.66
17.50
20.45
24.86
29.58
33.34
35.01
34.16
31.05
26.50
21.61
17.54
15.67
16.89
21.39
28.29
36.53
45.04
52.97
59.66
64.73
69.01
73.14
77.12
79.51
79.88
78.49
76.23
73.89
72.17
73.37
78.82
88.25
98.30
107.71
116.66
126.37
137.70
150.94
168.61
191.57
218.19
242.26
261.14
274.73
284.88
293.29
301.58
314.87
336.08
364.17
390.55
409.71
418.62
417.42
407.64
368.47
293.13
190.67
104.58
44.56
7.83
-17.46
-36.30
-51.48
-64.42
-72.14
-73.09
-68.63
-66.35
-69.58
-78.81
-92.24
-108.47
-126.40
-142.46
-154.75
-164.13
-176.64
-195.20
-220.33
-250.34
-283.17
-316.55
-346.60
-370.89
-389.31
-405.61
-422.06
-439.89
-459.61
-482.36
-509.32
-539.76
-570.97
-597.89
-614.63
-614.45
-592.91
-549.84
-489.81
-419.85
-346.38
-273.86
-204.89
-141.86
-87.39
-44.56
-15.72
-1.02
2.50
0.10
-2.66
-1.93
3.34
11.70
20.45
27.32
31.42
33.55
35.64
39.88
47.88
60.15
75.95
93.62
111.06
126.10
136.84
141.74
139.70
130.20
113.66
91.63
66.92
43.10
23.73
11.41
7.03
9.66
17.02
26.25
34.81
41.09
44.47
45.10
43.45
39.96
34.77
27.92
19.37
9.27
-2.08
-14.33
-27.09
-39.88
-51.99
-62.29
-69.39
-72.02
-69.64
-62.84
-53.31
-43.27
-34.65
-28.35
-24.13
-20.85
-17.30
-12.68
-7.06
-1.21
3.79
7.07
8.24
7.54
5.76
4.02
3.56
5.31
9.66
16.31
24.43
32.98
41.08
48.33
54.84
61.14
67.68
74.48
81.05
86.71
91.02
94.18
97.09
101.15
108.13
119.22
134.47
152.87
172.69
192.01
209.25
223.23
233.26
239.68
242.82
242.64
238.74
230.98
219.80
206.49
192.62
179.50
168.83
160.91
154.33
146.75
136.23
122.26
106.33
90.85
78.39
72.25
73.81
81.61
91.63
98.84
98.78
89.45
71.18
38.48
-6.58
-55.18
-95.85
-121.50
-131.41
-133.08
-133.42
-137.17
-146.79
-160.89
-176.52
-190.09
-198.24
-198.65
-191.02
-177.05
-160.70
-146.54
-136.84
-132.13
-131.78
-134.88
-140.68
-148.67
-157.91
-167.39
-175.83
-181.12
-181.72
-177.12
-167.92
-155.11
-139.64
-121.66
-101.01
-77.44
-50.59
-20.80
10.53
41.06
68.01
88.83
101.87
106.52
103.43
94.42
81.81
67.79
53.92
40.88
28.77
17.51
7.14
-2.00
-9.50
-15.09
-19.01
-21.94
-24.71
-27.86
-31.43
-34.96
-37.67
-38.73
-37.26
-32.39
-23.36
-9.78
8.10
29.15
51.62
73.51
93.09
109.29
121.75
130.65
136.46
139.79
141.26
141.44
140.73
139.27
137.03
133.88
129.91
125.50
121.16
117.38
114.35
111.92
109.83
107.85
105.86
103.76
101.27
97.83
92.63
84.88
74.12
60.38
44.34
27.13
10.20
-5.08
-17.63
-26.99
-33.38
-37.57
-40.66
-43.69
-47.34
-51.89
-57.26
-63.23
-69.56
-76.05
-82.49
-88.50
-93.53
-96.94
-98.23
-97.19
-94.13
-89.68
-84.71
-80.00
-76.07
-73.22
-71.57
-71.21
-72.24
-74.66
-78.28
-82.68
-87.29
-91.59
-95.19
-97.81
-99.09
-98.52
-95.52
-89.57
-80.63
-69.21
-56.37
-43.37
-31.28
-20.64
-11.48
-3.50
3.62
9.98
15.43
19.72
22.63
24.22
24.80
24.85
24.77
24.76
24.71
24.35
23.42
21.81
19.69
17.44
15.38
13.70
12.41
11.34
10.32
9.13
7.51
5.13
1.62
-3.10
-8.60
-13.82
-17.24
-17.56
-14.10
-7.24
1.80
11.32
19.77
26.09
29.88
31.28
30.74
28.84
26.15
23.19
20.31
17.68
15.21
12.59
9.34
4.93
-1.06
-8.87
-18.40
-29.12
-40.18
-50.68
-59.92
-67.69
-74.32
-80.45
-86.60
-92.80
-98.43
-102.36
-103.37
-100.60
-93.79
-83.20
-69.37
-52.86
-34.18
-13.95
7.04
27.67
46.80
63.47
77.16
87.89
95.97
101.81
105.69
107.74
108.00
106.59
103.67
99.44
94.08
87.67
80.28
72.05
63.30
54.50
46.20
38.92
33.06
28.79
26.00
24.28
23.00
21.45
19.00
15.29
10.28
4.18
-2.66
-9.89
-17.17
-24.12
-30.36
-35.51
-39.44
-42.29
-44.45
-46.31
-47.97
-49.10
-49.08
-47.31
-43.53
-38.02
-31.49
-24.71
-18.29
-12.43
-7.01
-1.81
3.23
7.85
11.61
14.01
14.74
13.82
11.54
8.36
4.75
1.00
-2.77
-6.65
-10.82
-15.53
-21.05
-27.56
-35.10
-43.37
-51.70
-59.06
-64.22
-66.06
-63.92
-57.79
-48.38
-36.85
-24.58
-12.71
-1.99
7.22
14.73
20.44
24.15
25.80
25.59
24.08
22.09
20.38
19.42
19.21
19.49
19.93
20.39
20.99
21.91
23.24
24.75
26.01
26.47
25.79
23.84
20.79
17.00
13.01
9.43
6.92
6.10
7.33
10.58
15.33
20.68
25.62
29.40
31.74
32.82
33.05
32.72
31.76
29.80
26.35
21.12
14.22
6.19
-2.18
-10.07
-16.85
-22.18
-25.95
-28.26
-29.25
-29.11
-28.04
-26.31
-24.32
-22.62
-21.85
-22.61
-25.27
-29.87
-35.99
-42.91
-49.68
-55.38
-59.25
-60.71
-59.38
-55.11
-47.96
-38.23
-26.51
-13.61
-0.46
12.01
23.05
32.10
38.77
42.94
44.67
44.20
41.98
38.56
34.54
30.44
26.63
23.20
20.05
16.97
13.73
10.32
6.93
3.91
1.62
0.19
-0.48
-0.82
-1.35
-2.50
-4.42
-6.89
-9.31
-10.91
-10.84
-8.37
-3.00
5.41
16.69
30.35
45.74
62.02
78.28
93.58
107.05
118.13
126.66
132.95
137.65
141.51
144.99
148.20
150.82
152.41
152.67
151.69
149.88
147.74
145.62
143.51
141.03
137.55
132.33
124.59
113.68
99.07
80.63
58.76
