1649775135.00
64.000000
-0.00
-0.00
-0.00
-0.00
-0.00
-0.00
-0.00
-0.00
-0.00
-0.00
0.00
0.01
0.01
-0.00
-0.03
-0.05
-0.05
0.00
0.13
0.36
0.66
1.01
1.37
1.72
2.06
2.40
2.79
3.24
3.80
4.42
5.06
5.66
6.20
6.68
7.15
7.68
8.31
9.14
10.09
11.04
11.88
12.56
13.14
13.76
14.65
15.96
17.91
20.32
22.90
25.38
27.58
29.57
31.68
34.32
37.81
42.54
48.15
54.10
59.83
64.97
69.58
74.14
79.34
85.71
93.76
103.00
112.62
121.73
129.77
136.75
143.30
150.75
157.77
166.64
177.95
191.79
206.97
220.57
228.25
225.36
208.53
176.87
132.76
80.05
23.07
-34.94
-92.44
-149.16
-205.23
-260.37
-313.74
-363.87
-409.83
-450.91
-486.50
-515.74
-537.23
-549.22
-549.96
-538.37
-514.21
-478.67
-433.88
-382.45
-327.02
-269.84
-212.63
-156.66
-102.95
-52.37
-5.90
35.58
71.43
101.35
125.50
144.38
158.69
169.15
176.37
180.75
182.57
182.07
179.51
175.23
169.65
163.18
156.15
148.81
141.30
133.69
126.02
118.33
110.69
103.16
95.80
88.68
81.83
75.25
68.95
62.95
57.25
51.86
46.78
42.03
37.59
33.45
29.61
26.07
22.81
19.83
17.11
14.67
12.48
10.54
8.83
7.35
6.07
4.97
4.05
3.27
2.62
2.09
1.65
1.30
1.01
0.79
0.61
0.47
0.37
0.28
0.22
0.18
0.14
0.12
0.12
0.12
0.13
0.14
0.16
0.20
0.25
0.32
0.39
0.44
0.46
0.40
0.29
0.16
0.06
0.03
0.10
0.26
0.46
0.62
0.69
0.64
0.51
0.36
0.29
0.36
0.56
0.84
1.09
1.21
1.15
0.98
0.85
0.92
1.29
1.94
2.67
3.20
3.31
2.91
2.22
1.61
1.53
2.21
3.56
5.15
6.33
6.54
5.63
3.96
2.32
1.58
2.34
4.50
7.35
9.73
10.56
9.38
6.58
3.26
0.56
-0.70
-0.54
0.16
-0.09
-2.75
-9.03
-19.38
-33.16
-48.29
-61.07
-66.94
-62.13
-45.56
-20.16
7.55
29.66
40.00
36.39
21.41
0.79
-18.24
-30.18
-32.33
-24.85
-10.21
8.24
26.36
40.13
46.61
44.90
36.34
23.88
11.01
0.50
-6.31
-9.54
-10.07
-9.04
-7.51
-6.38
-6.31
-7.43
-9.18
-10.43
-9.80
-6.23
0.52
9.57
19.14
27.17
32.09
33.35
31.52
27.87
23.86
20.61
18.63
17.83
17.98
18.93
20.83
23.94
28.19
33.03
37.43
40.23
40.63
38.58
34.83
30.59
26.95
24.27
22.13
19.56
15.54
9.41
1.16
-8.76
-19.84
-30.83
-41.07
-50.46
-59.42
-68.66
-78.72
-89.61
-100.54
-109.92
-115.64
-115.82
-109.31
-96.15
-77.71
-56.37
-34.85
-15.54
0.05
11.47
19.01
23.40
25.44
25.71
24.65
22.55
19.65
16.28
12.81
9.56
6.81
4.67
3.05
1.66
0.14
-1.83
-4.36
-7.32
-10.41
-13.29
-15.82
-18.09
-20.41
-23.11
-26.32
-29.90
-33.53
-36.99
-40.48
-44.69
-50.70
-59.60
-72.08
-87.93
-105.73
-122.96
-136.38
-142.79
-139.93
-127.20
-105.80
-78.52
-48.82
-19.96
5.80
27.54
45.66
61.50
76.92
93.71
112.77
133.36
152.81
167.30
173.45
170.00
158.72
143.75
129.76
119.76
113.98
110.21
105.48
97.80
86.91
73.90
60.06
46.18
32.42
19.16
7.41
-1.22
-5.40
-5.13
-2.11
0.56
-0.58
-8.27
-23.52
-45.26
-70.44
-94.47
-112.13
-118.82
-112.05
-92.39
-63.66
-31.59
-2.18
20.26
33.89
39.25
38.21
32.93
25.32
17.04
9.85
5.55
5.59
10.37
18.75
28.24
35.81
38.98
36.68
29.59
19.61
9.11
-0.03
-6.94
-11.83
-15.54
-18.95
-22.58
-26.42
-30.07
-33.00
-34.78
-35.32
-34.91
-34.20
-34.09
-35.29
-37.91
-41.21
-43.60
-43.10
-37.99
-27.40
-11.63
7.86
28.91
49.11
66.37
79.21
86.94
89.62
87.89
82.67
74.93
65.54
55.29
44.91
35.17
26.70
20.00
15.25
12.33
10.96
10.76
11.34
12.25
13.06
13.34
12.76
11.22
8.85
5.90
2.68
-0.68
-4.31
-8.65
-14.22
-21.47
-30.32
-39.95
-48.82
-54.93
-56.43
-52.24
-42.48
-28.46
-12.28
3.79
17.90
28.94
36.61
41.19
43.23
43.32
41.90
39.23
35.47
30.80
25.48
19.90
14.53
9.80
5.99
3.14
1.06
-0.62
-2.31
-4.41
-7.17
-10.69
-14.91
-19.58
-24.33
-28.74
-32.51
-35.58
-38.27
-41.21
-45.04
-50.05
-55.76
-60.82
-63.25
-61.08
-53.03
-39.02
-20.28
1.10
22.76
42.71
59.72
73.27
83.34
90.05
93.62
94.27
92.35
88.41
83.10
77.02
70.68
64.35
58.14
52.08
46.12
40.14
33.88
27.01
19.11
9.88
-0.74
-12.48
-24.81
-37.09
-48.80
-59.77
-70.10
-80.08
-90.05
-100.26
-110.70
-120.94
-130.15
-137.02
-139.99
-137.54
-128.71
-113.51
-93.14
-69.63
-45.33
-22.35
-2.14
14.56
27.67
37.57
44.90
50.25
54.25
57.48
60.18
62.28
63.32
62.99
61.35
58.94
56.32
54.23
53.32
53.48
54.02
53.49
50.62
44.99
37.07
27.62
18.03
9.81
3.89
0.63
-0.79
-1.75
-3.95
-9.47
-20.65
-38.14
-60.13
-82.86
-101.61
-113.35
-117.39
-115.79
-107.86
-96.51
-86.14
-79.05
-76.88
-75.70
-73.19
-69.75
-65.36
-61.65
-60.28
-60.76
-60.53
-56.63
-47.01
-32.45
-15.52
0.83
14.34
24.10
31.09
37.22
43.76
50.82
56.89
60.25
60.07
56.63
51.01
44.83
39.40
34.97
30.90
25.87
19.12
11.20
3.75
-1.11
-1.44
3.70
13.80
27.17
41.42
54.40
64.78
72.04
76.30
77.87
76.86
72.89
65.12
52.51
34.32
10.49
-18.04
-49.36
-80.72
-108.93
-130.75
-143.42
-145.24
-136.06
-117.48
-92.58
-65.30
-39.42
-17.77
-1.79
8.37
13.43
14.52
12.89
9.77
6.31
3.40
1.46
0.37
-0.16
-0.17
0.92
4.25
11.00
21.70
35.98
52.68
70.56
88.72
106.72
124.13
140.00
152.68
160.18
160.99
154.91
143.21
128.15
112.17
96.99
83.26
70.84
59.22
47.99
37.08
26.69
17.07
8.36
0.50
-6.69
-13.49
-20.10
-26.68
-33.34
-40.09
-46.86
-53.50
-59.79
-65.53
-70.68
-75.33
-79.77
-84.35
-89.48
-95.42
-102.15
-109.13
-115.20
-118.70
-117.81
-111.21
-98.57
-80.84
-60.03
-38.59
-18.67
-1.57
12.39
23.59
32.65
40.05
45.94
50.33
53.24
54.83
55.42
55.36
54.94
54.37
53.74
53.12
52.57
52.04
51.42
50.48
49.02
46.90
44.19
41.06
37.68
34.13
30.28
25.95
21.04
15.66
10.15
4.96
0.41
-3.44
-6.87
-10.39
-14.61
-20.10
-27.23
-36.09
-46.34
-57.13
-67.09
-74.49
-77.70
-75.63
-68.20
-56.39
-42.05
-27.33
-14.04
-3.23
4.96
11.07
15.90
20.08
23.87
27.19
29.80
31.58
32.59
33.04
33.19
33.20
33.13
32.99
32.84
32.80
32.96
33.27
33.47
33.18
31.97
29.64
26.22
21.93
17.09
11.96
6.69
1.35
-3.97
-9.12
-13.86
-17.95
-21.29
-24.04
-26.65
-29.78
-34.14
-40.24
-48.21
-57.68
-67.71
-76.89
-83.52
-85.99
-83.21
-74.95
-62.09
-46.41
-30.16
-15.38
-3.39
5.46
11.57
15.75
18.68
20.71
21.87
22.06
21.36
20.12
18.86
18.05
17.89
18.22
18.59
18.45
17.45
15.58
13.17
10.68
8.42
6.35
4.10
1.14
-2.88
-7.99
-13.85
-19.95
-25.79
-31.09
-35.76
-39.86
-43.44
-46.57
-49.47
-52.49
-56.13
-60.74
-66.07
-71.17
-74.36
-73.75
-67.84
-56.25
-39.89
-20.75
-1.17
16.89
32.38
45.25
55.95
65.07
72.76
78.80
82.66
83.96
82.66
79.19
74.33
68.95
63.81
59.34
55.63
52.44
49.42
46.22
42.69
38.83
34.75
30.55
26.16
21.41
16.12
10.26
3.96
-2.48
-8.75
-14.65
-20.23
-25.69
-31.35
-37.56
-44.58
-52.54
-61.33
-70.51
-79.14
-85.86
-89.16
-87.73
-80.93
-69.05
-53.34
-35.69
-18.10
-2.17
11.20
21.87
30.21
36.75
41.93
45.90
48.65
50.16
50.57
50.23
49.58
48.99
48.53
47.98
46.87
44.79
41.62
37.61
33.25
28.97
24.82
20.39
15.02
8.09
-0.59
-10.67
-21.42
-31.92
-41.45
-49.65
-56.61
-62.71
-68.51
-74.51
-81.04
-88.11
-95.32
-101.88
-106.61
-108.18
-105.42
-97.63
-84.91
-68.30
-49.57
-30.74
-13.58
0.91
12.60
22.04
29.93
36.68
42.18
45.87
47.23
46.10
43.00
39.03
35.44
33.21
32.65
33.44
34.85
36.20
37.14
37.78
38.40
39.19
39.98
40.22
39.23
36.42
31.60
24.91
16.83
7.90
-1.38
-10.66
-19.72
-28.44
-36.74
-44.54
-51.80
-58.36
-63.83
-67.57
-68.63
-66.03
-59.11
-47.94
-33.47
-17.42
-1.81
11.75
22.47
30.60
37.05
42.85
48.64
54.41
59.69
63.87
66.63
68.01
68.31
67.83
66.66
64.72
61.88
58.19
53.96
49.64
45.69
42.29
39.30
36.28
32.70
28.16
22.51
15.96
8.91
1.89
-4.75
-10.85
-16.57
-22.26
-28.27
-34.81
-41.85
-49.07
-55.82
-61.26
-64.37
-64.24
-60.28
-52.50
-41.65
-29.00
-16.09
-4.23
5.72
13.43
18.92
22.34
23.83
23.53
21.69
18.77
15.35
12.02
9.16
6.93
5.28
4.14
3.49
3.50
4.37
6.20
8.82
11.77
14.45
16.24
16.75
15.84
13.58
10.09
5.46
-0.32
-7.32
-15.63
-25.30
-36.24
-48.14
-60.25
-71.26
-79.49
-83.17
-81.04
-72.79
-59.24
-42.01
-23.08
-4.24
13.21
28.48
41.11
50.89
57.78
62.00
64.02
64.49
64.04
63.05
61.64
59.70
57.08
53.81
50.08
46.21
42.46
38.87
35.22
31.17
26.43
20.96
15.02
9.05
3.48
-1.39
-5.55
-9.19
-12.63
-16.23
-20.33
-25.07
-30.36
-35.62
-39.88
-41.90
-40.60
-35.47
-26.87
-16.04
-4.66
5.63
13.71
19.29
22.72
24.77
26.14
27.33
28.51
29.72
30.96
32.32
33.89
35.66
37.46
38.90
39.66
39.67
39.25
39.03
39.71
41.64
44.65
48.09
51.07
52.86
53.06
51.65
48.91
45.10
40.38
34.64
27.67
19.28
9.54
-1.06
-11.59
-20.80
-27.44
-30.62
-30.14
-26.59
-21.11
-14.96
-9.12
-4.03
0.34
4.21
7.66
10.43
12.06
12.04
10.19
6.75
2.36
-2.17
-6.26
-9.66
-12.51
-15.12
-17.76
-20.45
-23.03
-25.35
-27.46
-29.67
-32.51
-36.38
-41.34
-46.97
-52.58
-57.39
-61.01
-63.49
-65.31
-67.22
-69.93
-73.92
-79.31
-85.78
-92.50
-98.17
-101.28
-100.39
-94.74
-84.52
-70.98
-56.04
-41.67
-29.25
-19.31
-11.51
-5.22
0.12
4.64
8.11
10.20
10.80
10.12
8.60
6.65
4.47
2.02
-0.88
-4.37
-8.42
-12.77
-17.08
-21.02
-24.32
-26.84
-28.55
-29.49
-29.88
-29.98
-30.10
-30.41
-30.94
-31.47
-31.69
-31.24
-29.91
-27.69
-24.73
-21.39
-18.13
-15.43
-13.66
-12.82
-12.38
-11.14
-7.51
0.06
12.47
29.49
49.78
71.24
91.72
109.71
124.72
137.21
148.13
158.37
168.43
178.31
187.66
195.98
202.77
207.54
209.91
209.64
206.82
201.92
195.72
188.99
182.17
175.19
167.56
158.75
148.47
136.81
124.03
110.28
95.35
78.71
59.80
38.33
14.49
-11.06
-37.36
-63.31
-87.81
-109.82
-128.50
-143.42
-154.73
-163.13
-169.59
-174.87
-179.23
-182.40
-183.85
-183.17
-180.27
-175.46
-169.21
-161.95
-154.08
-146.04
-138.38
-131.61
-125.85
-120.49
-114.36
-106.31
-95.94
-84.04
-72.39
-62.92
-56.80
-53.83
-52.63
-51.39
-48.78
-44.48
-39.13
-33.82
-29.52
-26.65
-25.09
-24.37
-23.87
-23.01
-21.40
-18.88
-15.54
-11.59
-7.36
-3.17
0.63
3.67
5.62
6.13
4.98
2.10
-2.47
-8.64
-16.40
-25.74
-36.34
-47.38
-57.43
-64.68
-67.59
-65.37
-58.40
-48.03
-36.12
-24.33
-13.74
-4.69
2.95
9.48
15.05
19.66
23.22
25.76
27.40
28.34
28.68
28.44
27.48
25.74
23.29
20.44
17.61
15.22
13.43
12.09
10.78
9.02
6.50
3.18
-0.69
-4.76
-8.81
-12.78
-16.85
-21.34
-26.51
-32.51
-39.30
-46.58
-53.83
-60.41
-65.64
-68.99
-70.21
-69.46
-67.26
-64.21
-60.79
-57.03
-52.46
-46.23
-37.49
-25.75
-11.18
5.33
22.37
38.45
52.35
63.44
71.70
77.57
81.67
84.45
86.11
86.66
86.09
84.49
82.16
79.45
76.58
73.59
70.36
66.80
62.99
59.21
55.78
52.91
50.48
48.14
45.43
42.07
38.01
33.51
28.93
24.61
20.71
17.17
13.78
10.33
6.63
2.68
-1.40
-5.42
-9.17
-12.55
-15.62
-18.62
-21.89
-25.82
-30.71
-36.65
-43.33
-49.95
-55.33
-58.09
-57.15
-52.09
-43.35
-32.11
-19.92
-8.12
2.40
11.39
18.99
25.50
31.09
35.82
39.65
42.57
44.61
45.87
46.45
46.43
45.94
45.13
44.21
43.32
42.54
41.80
40.96
39.86
38.40
36.54
34.28
31.63
28.56
25.05
21.13
16.92
12.56
8.19
3.92
-0.25
-4.29
-8.23
-12.02
-15.65
-19.25
-23.08
-27.53
-32.90
-39.10
-45.51
-50.97
-54.09
-53.66
-49.08
-40.63
-29.35
-16.78
-4.46
6.49
15.51
22.62
28.17
32.54
35.98
38.51
40.09
40.72
40.58
39.94
39.11
38.25
37.37
36.37
35.14
33.66
31.98
30.16
28.20
25.96
23.34
20.22
16.60
12.53
8.11
3.36
-1.70
-7.06
-12.60
-18.11
-23.31
-27.91
-31.73
-34.80
-37.39
-39.93
-42.93
-46.71
-51.27
-56.17
-60.50
-63.13
-62.95
-59.26
-52.02
-41.89
-30.10
-17.93
-6.43
3.96
13.25
21.74
29.66
37.00
43.53
48.94
53.13
56.25
58.62
60.51
62.03
63.06
63.57
63.70
63.85
64.35
65.10
65.27
63.55
58.66
50.12
38.62
25.88
13.98
4.48
-2.14
-6.46
-9.62
-12.76
-16.63
-21.58
-27.71
-34.97
-43.01
-51.06
-58.08
-63.20
-66.22
-67.84
-69.24
-71.17
-73.14
-73.09
-68.07
-55.45
-34.30
-6.09
25.66
56.54
82.67
101.71
113.13
117.84
117.44
113.57
107.58
100.40
92.64
84.60
76.14
66.70
55.42
41.49
24.62
5.40
-14.86
-34.48
-52.06
-66.89
-79.13
-89.59
-99.40
-109.49
-120.24
-131.01
-139.99
-144.37
-141.05
-127.76
-104.19
-72.66
-37.73
-4.96
20.79
36.74
42.71
40.76
34.13
26.25
19.99
17.25
18.84
24.43
32.64
41.36
48.23
51.37
49.94
44.31
35.82
26.21
17.02
9.12
2.62
-2.94
-8.28
-14.05
-20.57
-27.83
-35.51
-43.19
-50.43
-56.86
-62.32
-66.79
-70.48
-73.82
-77.29
-81.29
-85.90
-90.84
-95.42
-98.77
-100.13
-99.09
-95.79
-90.84
-85.20
-79.83
-75.35
-71.76
-68.30
-63.70
-56.51
-45.60
-30.56
-11.78
9.72
32.48
54.94
75.62
93.36
107.36
117.21
122.97
125.11
124.40
121.72
117.89
113.50
108.96
104.55
100.32
96.13
91.72
86.83
81.39
75.55
69.72
64.46
60.27
57.34
55.38
53.71
51.49
48.02
43.01
36.77
30.45
25.55
23.20
23.37
24.85
25.74
24.41
20.44
15.08
11.34
12.58
20.73
35.06
52.42
68.65
80.14
85.04
83.47
77.88
71.50
66.94
65.29
66.77
71.20
77.65
83.91
86.09
80.93
67.07
46.17
22.61
2.71
-7.59
-5.51
7.10
18.01
15.43
-5.06
-36.38
-66.56
-86.75
-94.43
-94.31
-91.72
-90.43
-90.72
-90.91
-88.74
-84.62
-80.42
-77.96
-77.94
-80.19
-83.05
-82.77
-75.84
-61.40
-42.36
-23.58
-9.56
-2.82
-4.68
-13.60
-24.59
-31.74
-31.13
-22.79
-9.79
2.94
10.04
4.95
-15.83
-50.37
-92.40
-134.08
-168.87
-192.34
-203.21
-189.76
-151.97
-104.02
-63.28
-37.62
-24.56
-18.33
-14.47
-11.44
-9.62
-11.81
-18.83
-28.11
-37.12
-42.68
-44.39
-43.40
-40.89
-37.13
-33.07
-28.49
-21.86
-11.78
1.73
16.87
31.75
44.61
54.73
61.43
65.03
66.75
67.77
68.50
68.27
66.28
62.18
56.50
49.96
43.98
40.54
41.43
47.44
57.87
70.95
84.38
95.83
103.12
104.67
100.00
89.87
76.19
61.64
49.04
40.71
37.88
40.50
47.27
56.02
64.15
69.11
68.76
61.74
47.87
28.27
5.29
-17.86
-37.61
-50.68
-54.80
-49.31
-35.37
-15.69
6.25
27.20
44.88
58.32
67.67
73.64
77.09
78.83
79.59
80.02
80.61
81.56
82.74
83.73
83.91
82.60
79.09
72.77
63.12
49.72
32.33
10.90
-14.29
-42.54
-72.69
-103.33
-133.04
-160.66
-185.41
-206.87
-224.85
-239.34
-250.47
-258.54
-263.95
-267.04
-267.83
-266.01
-260.99
-252.16
-239.10
-221.61
-199.66
-173.32
-142.87
-109.02
-73.03
-36.69
-2.09
28.77
54.34
73.63
86.23
92.23
92.30
87.88
81.25
75.27
72.78
75.69
84.40
97.75
113.61
129.93
145.61
160.61
175.33
189.45
201.18
207.25
203.94
188.73
161.58
125.29
84.72
45.30
11.39
-14.90
-34.04
-48.32
-60.71
-73.59
-88.00
-103.59
-119.36
-134.49
-148.82
-162.62
-175.78
-187.04
-193.91
-193.56
-184.25
-166.41
-142.73
-117.04
-92.53
-70.56
-50.49
-30.75
-10.19
11.04
31.44
49.11
62.73
72.10
78.04
81.70
83.91
84.86
84.21
81.59
77.09
71.44
65.88
61.76
59.93
60.40
62.25
63.95
63.84
60.68
53.99
44.05
31.79
18.37
4.94
-7.62
-18.83
-28.60
-37.18
-45.05
-52.82
-61.04
-69.96
-79.14
-87.35
-92.65
-92.93
-86.74
-74.03
-56.26
-36.00
-15.98
1.98
17.33
30.67
43.00
55.09
66.99
78.21
88.15
96.43
103.14
108.65
113.37
117.41
120.53
122.17
121.79
119.11
114.28
107.89
100.69
93.31
85.97
78.41
70.02
60.11
48.28
34.63
19.79
4.75
-9.50
-22.18
-32.99
-42.09
-49.98
-57.41
-65.11
-73.69
-83.37
-93.71
-103.55
-111.05
-114.19
-111.42
-102.27
-87.58
-69.25
-49.62
-30.73
-13.86
0.54
12.66
22.86
31.46
38.57
44.19
48.31
51.00
52.44
52.87
52.52
51.58
50.18
48.40
46.36
44.23
42.22
40.54
39.26
38.25
37.14
35.39
32.43
27.83
21.47
13.60
4.78
-4.25
-12.72
-20.16
-26.47
-31.96
-37.29
-43.24
-50.49
-59.41
-69.92
-81.25
-91.93
-99.97
-103.13
-99.52
-88.20
-69.54
-45.17
-17.55
10.68
37.42
61.47
82.44
100.37
115.29
126.88
134.54
137.53
135.40
128.15
116.32
100.88
82.98
63.94
44.95
27.04
10.94
-3.05
-15.10
-25.74
-35.58
-45.09
-54.48
-63.65
-72.40
-80.56
-87.97
-94.46
-99.71
-103.26
-104.70
-103.87
-101.10
-97.14
-92.96
-89.45
-87.21
-86.34
-86.39
-86.37
-84.77
-79.88
-70.21
-54.99
-34.63
-10.66
14.60
38.68
59.62
76.29
88.45
96.52
101.24
103.44
103.82
102.91
100.98
98.13
94.40
89.88
84.78
79.43
74.00
68.45
62.47
55.49
46.98
36.65
24.61
11.52
-1.59
-13.53
-23.33
-30.45
-35.09
-37.94
-39.87
-41.55
-43.10
-44.26
-44.76
-44.78
-45.21
-47.41
-52.65
-61.58
-73.83
-88.03
-102.02
-113.09
-118.31
-114.80
-100.52
-75.20
-41.31
-3.98
30.18
55.26
68.22
69.85
63.96
55.42
47.86
42.57
38.72
34.78
29.78
23.96
18.26
13.62
10.27
7.83
5.80
4.09
3.01
2.91
3.74
4.75
4.73
2.59
-2.13
-8.96
-16.76
-24.15
-30.16
-34.58
-38.07
-41.89
-47.36
-55.25
-65.27
-75.92
-84.77
-89.17
-87.08
-77.80
-62.15
-42.22
-20.69
-0.03
18.10
33.05
45.01
54.60
62.49
69.12
74.66
79.06
82.21
83.99
84.38
83.52
81.63
79.05
76.20
73.49
71.23
69.55
68.26
66.85
64.60
60.72
54.67
46.43
36.49
25.82
15.47
6.19
-1.83
-9.04
-16.34
-24.71
-34.78
-46.58
-59.28
-71.34
-80.79
-85.75
-84.92
-78.03
-65.97
-50.51
-33.91
-18.22
-4.85
5.59
13.25
18.70
22.58
25.35
27.22
28.10
27.89
26.51
24.08
20.91
17.52
14.59
12.76
12.61
14.34
17.74
22.14
26.57
30.01
31.72
31.45
29.48
26.54
23.44
20.81
18.69
16.52
13.22
7.60
-1.09
-12.69
-25.95
-38.67
-48.31
-52.69
-50.65
-42.39
-29.34
-13.61
2.51
17.18
29.22
38.14
44.02
47.20
48.15
47.23
44.63
40.32
34.13
25.97
16.00
4.80
-6.71
-17.46
-26.56
-33.52
-38.43
-41.83
-44.56
-47.43
-51.09
-55.80
-61.48
-67.71
-73.88
-79.41
-83.88
-87.26
-89.92
-92.67
-96.52
-102.41
-110.70
-120.82
-131.10
-139.06
-142.11
-138.40
-127.53
-110.71
-90.31
-69.02
-48.93
-30.99
-14.91
0.42
16.29
33.54
52.24
71.71
90.72
107.88
122.06
132.63
139.64
143.78
146.25
148.39
151.41
156.06
162.55
170.58
179.54
188.60
196.75
202.67
204.80
201.60
192.10
176.32
155.55
131.85
107.35
83.59
61.28
40.64
22.04
6.41
-4.91
-10.81
-11.03
-6.60
0.50
8.01
14.10
17.77
18.84
17.57
14.32
9.39
3.00
-4.50
-12.64
-20.83
-28.57
-35.48
-41.37
-46.11
-49.54
-51.49
-51.82
-50.58
-48.15
-45.22
-42.60
-41.00
-40.89
-42.39
-45.41
-49.68
-54.91
-60.80
-67.08
-73.65
-80.48
-87.64
-95.03
-102.17
-108.06
-111.25
-110.20
-103.78
-91.75
-74.94
-55.01
-34.00
-13.67
4.88
21.24
35.45
47.53
57.29
64.31
68.22
69.03
67.15
63.33
58.37
52.87
47.18
41.53
36.15
31.28
27.16
23.75
20.72
17.56
13.70
8.83
2.97
-3.54
-10.27
-16.81
-23.00
-28.91
-34.84
-41.21
-48.49
-56.99
-66.60
-76.58
-85.56
-91.74
-93.39
-89.42
-79.82
-65.68
-48.81
-31.19
-14.44
0.48
13.18
23.66
31.98
38.16
42.16
44.03
44.01
42.55
40.25
37.64
35.06
32.54
29.90
26.87
23.26
19.04
14.35
9.34
3.98
-1.97
-8.90
-17.17
-26.89
-37.89
-49.68
-61.67
-73.36
-84.48
-95.06
-105.39
-115.87
-126.94
-138.87
-151.61
-164.50
-176.20
-184.83
-188.47
-185.66
-175.87
-159.65
-138.39
-113.86
-87.61
-60.76
-34.02
-8.01
16.61
39.30
59.83
78.48
96.00
113.43
131.62
150.88
170.65
190.05
208.28
224.62
238.33
248.58
254.67
256.28
253.61
246.75
236.27
223.15
208.41
192.85
176.86
160.81
145.05
129.63
113.23
94.45
72.70
48.27
22.13
-4.58
-30.57
-54.84
-77.15
-99.08
-121.96
-145.64
-168.40
-187.59
-200.81
-206.33
-203.77
-187.61
-158.62
-124.39
-94.14
-72.55
-59.37
-52.96
-52.00
-55.26
-60.66
-65.12
-64.03
-53.33
-33.91
-9.37
12.77
24.60
21.50
3.74
-24.17
-54.65
-79.71
-93.61
-94.17
-83.10
-64.43
-40.59
-16.70
1.57
10.30
8.50
-1.89
-17.00
-32.82
-45.95
-54.30
-57.59
-56.82
-53.60
-49.72
-46.79
-45.86
-47.31
-50.26
-52.77
-52.86
-48.84
-39.97
-26.72
-10.45
7.12
24.36
40.19
54.01
65.26
73.65
78.98
81.26
80.79
78.27
74.66
70.94
67.96
65.98
64.92
64.37
63.82
62.88
61.38
59.41
57.19
54.89
52.44
49.66
46.18
41.69
35.98
29.07
21.13
12.46
3.36
-5.90
-15.17
-24.34
-33.46
-42.68
-52.24
-62.30
-72.71
-82.74
-91.05
-95.91
-95.76
-89.77
-78.17
-62.24
-43.91
-25.15
-7.54
8.01
21.18
32.05
40.82
47.66
52.65
55.89
57.60
58.13
57.94
57.46
56.99
56.58
56.10
55.37
54.26
52.79
50.99
48.83
46.12
42.50
37.60
31.17
23.25
14.17
4.52
-5.14
-14.37
-23.05
-31.39
-39.80
-48.78
-58.77
-70.04
-82.42
-95.24
-107.18
-116.41
-120.97
-119.30
-110.85
-96.27
-77.36
-56.49
-35.92
-17.21
-0.99
12.84
24.74
35.11
44.15
51.79
57.94
62.59
65.99
68.48
70.50
72.29
73.94
75.36
76.45
77.22
77.77
78.26
78.70
78.86
78.18
75.89
71.29
64.07
54.48
43.24
31.25
19.15
7.07
-5.33
-18.64
-33.33
-49.47
-66.74
-84.53
-101.99
-117.93
-130.65
-138.01
-137.94
-129.20
-112.16
-88.87
-62.58
-36.62
-13.40
6.07
22.05
35.37
46.74
56.39
64.09
69.59
72.88
74.38
74.81
74.88
75.09
75.57
76.11
76.30
75.77
74.41
72.32
69.79
67.05
64.16
60.92
57.01
52.11
46.11
39.10
31.38
23.32
15.22
7.19
-0.87
-9.32
-18.68
-29.50
-42.17
-56.60
-72.04
-87.05
-99.79
-108.55
-112.36
-111.25
-106.23
-98.85
-90.58
-82.36
-74.48
-66.82
-59.17
-51.52
-44.14
-37.48
-31.95
-27.71
-24.58
-22.07
-19.45
-16.04
-11.45
-5.74
0.59
6.70
11.86
15.70
18.42
20.66
23.12
26.13
29.43
32.21
33.55
32.84
30.12
26.03
21.53
17.38
13.79
10.25
5.68
-1.16
-11.25
-24.92
-41.49
-59.28
-75.90
-88.79
-96.02
-96.88
-92.19
-83.91
-74.49
-65.98
-59.39
-54.53
-50.16
-44.63
-36.40
-24.59
-9.32
8.26
26.15
42.02
53.90
60.80
63.04
62.04
59.85
58.32
58.54
60.68
64.11
67.89
71.11
73.13
73.53
72.03
68.44
62.73
55.16
46.34
37.04
28.03
19.74
12.13
4.68
-3.39
-12.88
-24.24
-37.40
-51.49
-65.00
-75.96
-82.42
-83.08
-77.65
-67.03
-52.96
-37.58
-22.72
-9.56
1.50
10.62
18.21
24.62
29.97
34.14
36.96
38.40
38.72
38.45
38.30
38.84
40.36
42.77
45.70
48.65
51.24
53.27
54.63
55.26
54.99
53.62
51.00
47.13
42.21
36.54
30.42
24.05
17.57
11.04
4.60
-1.64
-7.60
-13.40
-19.42
-26.24
-34.42
-44.19
-55.16
-66.12
-75.21
-80.39
-80.09
-73.80
-62.30
-47.43
-31.38
-16.05
-2.61
8.52
17.35
23.94
28.27
30.25
29.97
27.81
24.46
20.75
17.35
14.69
12.99
12.35
12.85
14.51
17.28
20.88
24.75
28.16
30.36
30.90
29.82
27.64
25.22
23.36
22.49
22.51
22.92
23.14
22.83
21.95
20.73
19.35
17.76
15.61
12.43
7.94
2.17
-4.53
-11.61
-18.50
-24.67
-29.63
-32.86
-33.81
-32.01
-27.24
-19.74
-10.21
0.29
10.72
20.26
28.37
34.63
38.50
39.26
36.21
29.12
18.72
6.83
-4.05
-11.56
-14.40
-12.87
-8.71
-4.44
-2.38
-4.01
-9.55
-18.03
-27.59
-35.90
-40.76
-40.59
-34.92
-24.53
-11.22
2.70
15.10
24.59
30.67
33.61
34.11
32.94
30.66
27.43
22.95
16.53
7.49
-4.23
-17.64
-30.61
-40.47
-44.91
-42.88
-34.92
-22.88
-9.05
4.53
16.56
26.44
34.01
39.27
42.35
43.56
43.43
42.66
41.88
41.46
41.46
41.69
41.97
42.12
42.08
41.66
40.60
38.58
35.36
30.97
25.63
19.65
13.19
6.06
-2.07
-11.49
-22.05
-33.01
-43.29
-51.81
-57.98
-61.86
-64.12
-65.64
-67.25
-69.51
-72.76
-77.10
-82.48
-88.36
-93.57
-96.34
-94.62
-86.80
-72.35
-52.20
-28.51
-3.99
18.92
38.75
54.99
67.76
77.34
83.76
86.98
87.19
85.17
82.16
79.48
77.94
77.43
76.97
75.22
71.02
63.78
53.47
40.42
24.99
7.61
-11.20
-30.64
-49.72
-67.47
-83.21
-96.66
-107.84
-116.85
-123.68
-128.15
-130.14
-129.82
-127.80
-125.06
-122.67
-121.54
-122.19
-124.56
-128.03
-131.43
-133.17
-131.63
-125.54
-114.47
-99.00
-80.63
-61.32
-42.91
-26.65
-13.02
-1.83
7.44
15.32
22.17
28.12
33.10
37.00
39.78
41.57
42.67
43.44
44.21
45.13
46.16
47.08
47.76
48.19
48.52
48.95
49.48
49.83
49.44
47.72
44.31
39.33
33.36
27.28
21.86
17.52
14.12
11.02
7.31
2.16
-4.88
-13.69
-23.45
-32.74
-39.78
-42.77
-40.42
-32.32
-19.11
-2.40
15.62
32.78
47.46
58.89
67.07
72.49
75.73
77.16
76.96
75.19
72.03
67.90
63.32
58.76
54.39
49.94
44.90
38.81
31.60
23.71
15.97
9.21
3.87
-0.21
-3.73
-7.63
-12.67
-19.14
-26.73
-34.63
-41.66
-46.43
-47.54
-43.78
-34.54
-20.29
-2.71
15.41
30.92
41.24
45.17
43.23
37.37
30.17
23.98
20.33
19.87
22.61
28.33
36.76
47.49
59.72
72.10
82.95
90.69
94.42
94.35
91.67
88.13
85.34
84.13
84.36
85.07
85.04
83.20
79.03
72.44
63.50
52.17
38.21
21.35
1.74
-19.77
-41.49
-61.31
-77.32
-88.37
-94.51
-96.87
-97.21
-97.26
-98.04
-99.55
-100.71
-99.72
-94.78
-84.75
-69.66
-50.83
-30.45
-10.90
6.00
19.42
29.53
37.24
43.62
49.56
55.50
61.42
67.05
72.02
76.10
79.17
81.28
82.49
82.83
82.27
80.72
78.02
74.02
68.54
61.41
52.57
42.21
30.74
18.74
6.78
-4.86
-16.37
-28.34
-41.67
-57.16
-75.22
-95.54
-117.09
-138.27
-157.27
-172.32
-182.00
-185.26
-181.54
-170.74
-153.42
-130.86
-105.01
-78.19
-52.61
-29.84
-10.49
5.64
19.23
30.93
41.12
49.96
57.63
64.52
71.20
78.16
85.34
92.02
97.02
99.16
98.02
94.15
88.92
83.88
80.02
77.29
74.69
70.87
64.84
56.47
46.54
36.40
27.45
20.66
16.41
14.45
13.97
13.72
12.12
7.55
-1.21
-14.40
-30.96
-48.64
-64.56
-76.12
-81.80
-81.45
-76.09
-67.28
-56.39
-44.39
-31.79
-19.05
-6.80
4.21
13.29
20.19
25.22
29.12
32.68
36.35
40.03
43.17
45.01
45.02
43.11
39.64
35.27
30.59
26.00
21.53
17.02
12.28
7.20
1.76
-4.13
-10.71
-18.37
-27.63
-38.87
-52.20
-67.44
-84.07
-101.36
-118.24
-133.13
-144.05
-148.93
-146.17
-135.21
-116.84
-93.15
-67.05
-41.41
-18.21
1.63
18.14
31.76
42.95
52.03
59.16
64.31
67.64
69.58
70.60
70.90
70.35
68.66
65.77
61.86
56.74
50.60
44.09
38.07
33.13
29.22
25.90
22.72
19.05
13.05
3.62
-8.99
-23.34
-37.73
-51.05
-62.61
-71.61
-77.92
-83.66
-90.08
-96.61
-101.10
-101.47
-97.50
-90.48
-82.15
-75.24
-74.53
-82.33
-97.25
-115.09
-131.78
-145.84
-157.88
-168.91
-163.79
-135.86
-90.61
-42.26
-2.49
25.16
42.40
47.92
47.84
46.04
41.85
34.26
23.47
10.63
0.89
-4.79
-7.12
-6.63
-4.75
-4.47
-7.55
-13.79
-21.59
-29.27
-36.21
-41.77
-44.39
-43.00
-37.80
-28.79
-15.67
1.75
22.65
45.04
66.42
84.57
97.10
102.15
99.69
91.46
79.99
67.35
55.13
43.78
32.67
20.49
6.65
-7.40
-18.65
-23.82
-20.89
-8.60
12.43
39.52
68.77
97.01
123.08
147.39
170.70
185.02
183.69
165.07
133.24
94.02
52.20
12.08
-21.87
-45.24
-55.16
-50.92
-33.87
-8.15
19.94
44.77
64.05
78.55
91.01
100.36
107.16
111.64
112.57
107.04
92.36
68.21
36.49
1.25
-32.39
-57.95
-70.36
-65.38
-45.53
-22.36
-10.15
-17.40
-42.00
-75.80
-109.49
-136.50
-154.50
-165.68
-174.40
-178.90
-179.08
-175.17
-168.35
-160.09
-151.98
-145.11
-139.84
-134.86
-126.89
-113.00
-91.61
-63.91
-33.38
-4.35
19.25
34.77
41.71
41.97
38.40
34.15
31.51
31.40
34.02
38.34
42.38
44.14
42.85
39.04
34.32
30.50
28.48
29.20
32.53
37.43
42.61
47.62
52.52
57.45
62.34
66.69
71.89
79.24
88.84
99.00
107.34
111.82
111.53
107.73
103.10
103.20
112.02
130.00
153.77
178.89
201.90
220.66
234.56
228.67
194.82
136.59
67.53
0.64
-56.34
-99.50
-131.62
-154.16
-168.42
-174.10
-172.80
-165.24
-154.79
-144.38
-135.58
-129.16
-124.81
-122.23
-116.36
-103.98
-84.54
-61.24
-38.60
-20.52
-9.30
-4.41
-3.30
-1.42
4.45
15.12
27.93
39.37
46.70
48.70
46.24
41.37
36.93
34.69
35.03
36.97
38.59
38.46
35.64
30.06
22.28
13.44
4.38
-4.48
-12.78
-20.08
-26.06
-30.57
-33.66
-35.60
-37.04
-39.04
-42.64
-47.93
-54.14
-60.48
-66.34
-71.45
-75.86
-79.94
-84.16
-88.74
-92.41
-92.79
-87.60
-74.88
-53.63
-24.09
12.29
53.41
92.08
121.34
139.31
148.12
150.42
147.15
138.19
123.93
105.86
86.17
67.47
52.66
40.31
29.05
18.29
8.36
0.16
-5.84
-10.42
-14.98
-21.13
-30.71
-44.72
-61.53
-78.86
-93.85
-104.01
-107.87
-105.19
-97.24
-86.93
-77.42
-71.27
-69.54
-71.43
-74.76
-77.01
-76.13
-71.22
-62.71
-51.59
-38.83
-25.06
-10.54
4.46
19.24
32.68
43.55
50.87
54.51
55.17
54.04
52.34
50.93
50.11
49.71
49.45
49.09
48.54
47.72
46.37
44.15
40.82
36.26
30.49
23.63
15.77
6.82
-3.39
-15.11
-28.31
-42.58
-56.98
-70.17
-80.58
-86.70
-87.43
-82.23
-71.06
-54.22
-32.34
-6.47
21.78
50.34
77.01
99.93
117.75
129.70
135.57
135.68
130.87
122.37
111.81
100.98
91.03
81.94
72.50
61.12
46.75
29.37
9.95
-9.63
-26.82
-39.55
-46.98
-49.75
-49.40
-47.74
-46.60
-48.02
-53.18
-61.72
-72.40
-83.72
-94.35
-102.84
-107.65
-107.76
-103.50
-95.23
-82.46
-64.58
-41.57
-14.38
15.75
48.31
83.45
121.36
154.90
176.15
181.65
174.14
157.87
135.20
108.00
83.77
62.42
44.73
32.32
25.73
23.80
24.42
23.86
20.30
10.43
-6.76
-28.33
-49.51
-67.34
-81.51
-92.77
-101.66
-107.26
-108.40
-104.02
-93.20
-78.29
-61.46
-46.82
-38.66
-39.97
-50.45
-67.21
-85.01
-97.75
-96.57
-79.00
-49.31
-14.74
16.98
44.89
69.06
89.65
106.52
119.18
127.00
127.23
120.41
108.76
95.27
81.79
69.39
58.60
49.64
42.37
36.81
33.66
33.06
34.38
35.77
35.50
32.85
28.49
24.06
21.72
23.58
30.06
39.31
46.80
46.55
32.65
1.16
-48.37
-111.76
-180.26
-242.96
-289.65
-314.08
-315.62
-299.10
-272.94
-246.09
-225.03
-211.65
-203.39
-194.80
-180.14
-155.76
-121.30
-79.51
-34.84
8.36
47.19
80.65
109.16
134.03
156.87
179.28
202.67
227.72
253.84
278.82
299.09
310.63
310.28
296.74
270.97
235.61
194.11
149.77
105.05
61.42
19.41
-21.01
-59.91
-96.90
-130.73
-159.23
-179.70
-189.67
-187.89
-175.04
-153.83
-128.31
-102.62
-79.86
-61.28
-46.43
-33.94
-22.50
-11.73
-2.31
4.28
6.48
3.38
-4.79
-16.56
-29.45
-40.54
-47.18
-47.65
-41.64
-30.26
-15.70
-0.62
12.56
22.19
27.66
29.38
28.55
26.71
25.26
24.96
25.74
26.65
26.32
23.61
18.27
11.30
4.81
1.31
2.87
10.42
23.44
40.21
58.39
75.71
90.49
101.82
109.51
113.79
115.07
113.68
109.86
103.78
95.76
86.38
76.64
67.78
61.01
56.97
55.42
55.22
54.59
51.78
45.60
35.68
22.48
6.86
-10.21
-27.94
-45.74
-63.21
-80.02
-95.93
-110.74
-124.28
-136.29
-146.39
-154.08
-158.89
-160.48
-158.67
-153.46
-145.01
-133.69
-120.16
-105.38
-90.56
-76.81
-64.95
-55.13
-46.84
-39.16
-31.14
-22.17
-12.29
-2.12
7.41
15.41
21.44
25.60
28.45
30.70
32.90
35.19
37.35
39.00
39.81
39.54
38.05
35.15
30.60
24.34
16.62
8.12
-0.34
-8.13
-15.30
-22.60
-31.18
-42.08
-55.73
-71.59
-88.10
-102.97
-113.58
-117.61
-113.67
-101.77
-83.40
-61.06
-37.51
-14.90
5.75
24.45
41.67
57.64
71.88
83.18
90.08
91.55
87.50
79.09
68.46
58.11
50.18
45.79
44.85
46.32
48.80
51.04
52.19
51.80
49.57
45.21
38.47
29.36
18.38
6.55
-4.82
-14.60
-22.25
-28.10
-33.22
-39.00
-46.73
-57.13
-70.19
-85.09
-100.38
-114.04
-123.79
-127.48
-123.69
-112.22
-94.41
-72.84
-50.64
-30.55
-14.15
-1.69
7.63
15.08
21.76
28.36
35.14
42.05
48.86
55.34
61.30
66.72
71.80
76.94
82.54
88.75
95.34
101.67
106.97
110.51
111.78
110.39
106.09
98.74
88.58
76.50
64.00
52.83
44.29
38.38
33.51
26.98
16.11
-0.39
-21.64
-44.71
-65.76
-81.37
-89.60
-90.13
-83.78
-71.81
-55.46
-36.09
-15.42
4.36
20.98
32.92
40.01
43.51
45.41
47.52
50.62
54.28
57.39
58.84
58.17
55.84
52.91
50.53
49.43
49.72
50.96
52.37
53.13
52.53
50.01
45.17
37.82
28.08
16.55
4.25
-7.41
-17.08
-23.77
-27.34
-28.52
-28.78
-29.96
-33.77
-41.36
-53.04
-68.06
-84.59
-99.92
-110.86
-114.59
-109.38
-95.28
-74.13
-49.15
-23.87
-1.21
17.22
31.26
41.75
49.90
56.74
62.77
67.98
71.99
74.33
74.71
73.10
69.85
65.59
61.04
56.89
53.60
51.32
49.92
49.04
48.25
47.08
45.11
42.03
37.70
32.18
25.68
18.55
11.05
3.41
-4.28
-11.98
-19.54
-26.71
-33.20
-38.87
-44.01
-49.30
-55.56
-63.15
-71.51
-79.00
-83.24
-82.06
-74.34
-60.61
-42.88
-23.89
-6.14
8.78
20.41
29.08
35.44
40.02
43.14
44.93
45.47
44.92
43.47
41.36
38.83
36.11
33.35
30.57
27.68
24.50
20.90
16.91
12.74
8.72
5.13
1.97
-1.07
-4.46
-8.72
-14.05
-20.32
-27.03
-33.67
-39.90
-45.79
-51.84
-58.74
-67.21
-77.68
-90.24
-104.47
-119.44
-133.65
-145.14
-151.86
-152.18
-145.46
-132.29
-114.35
-93.87
-72.97
-53.19
-35.37
-19.81
-6.57
4.25
12.55
18.35
21.88
23.72
24.59
25.23
26.10
27.28
28.50
29.34
29.42
28.62
27.09
25.17
23.11
20.93
18.34
14.85
9.99
3.57
-4.15
-12.47
-20.42
-27.01
-31.54
-33.85
-34.40
-34.20
-34.57
-36.85
-41.93
-49.95
-60.02
-70.21
-77.89
-80.40
-75.81
-63.58
-44.85
-22.07
1.67
23.53
41.57
55.02
64.13
69.72
72.73
73.93
73.87
72.95
71.48
69.79
68.08
66.47
64.78
62.72
59.99
56.55
52.59
48.53
44.77
41.44
38.29
34.76
30.19
24.14
16.60
8.02
-0.83
-9.14
-16.37
-22.41
-27.62
-32.70
-38.44
-45.47
-53.90
-63.12
-71.73
-77.85
-79.57
-75.61
-65.80
-51.18
-33.79
-16.01
0.09
13.25
23.10
30.05
34.86
38.43
41.49
44.53
47.77
51.12
54.21
56.44
57.16
55.92
52.68
47.99
42.88
38.58
36.09
35.79
37.36
39.76
41.67
41.79
39.22
33.61
25.19
14.65
2.94
-8.90
-20.02
-29.97
-38.77
-46.93
-55.18
-64.19
-74.16
-84.50
-93.80
-100.08
-101.30
-96.08
-84.27
-67.05
-46.60
-25.51
-5.99
10.66
24.10
34.80
43.55
50.99
57.41
62.76
66.88
69.70
71.40
72.33
72.79
72.88
72.42
71.08
68.67
65.31
61.46
57.68
54.31
51.28
48.07
44.08
38.79
32.01
23.94
15.11
6.25
-2.00
-9.24
-15.47
-20.99
-26.41
-32.55
-40.15
-49.47
-60.03
-70.47
-78.86
-83.13
-81.50
-73.32
-59.40
-41.79
-23.04
-5.42
9.72
22.05
31.97
40.73
49.16
57.19
64.04
68.90
71.52
72.42
72.58
73.00
75.47
80.67
87.70
94.56
99.39
101.45
101.10
99.42
97.45
97.56
100.74
105.85
110.20
111.34
108.41
102.14
94.36
86.98
84.03
87.78
97.47
109.66
120.36
126.81
127.89
123.90
101.97
58.63
2.38
-50.44
-87.24
-105.42
-110.22
-109.72
-109.21
-112.21
-116.00
-116.29
-110.45
-99.11
-85.18
-72.13
-62.82
-59.26
-62.91
-71.86
-83.40
-95.33
-106.27
-114.94
-119.60
-118.73
-111.98
-101.08
-86.43
-67.75
-44.94
-19.18
6.45
27.89
40.95
42.49
30.75
8.89
-16.34
-37.79
-51.01
-56.08
-55.75
-53.90
-54.19
-60.51
-73.59
-90.84
-107.84
-120.02
-124.30
-118.41
-101.59
-66.63
-17.62
31.26
65.27
77.24
73.50
60.92
44.52
29.08
17.66
10.20
6.40
6.46
10.32
16.88
23.43
27.91
29.69
29.03
25.63
20.10
13.99
8.68
4.64
0.79
-4.00
-10.38
-18.79
-30.04
-43.99
-59.22
-73.77
-86.05
-95.65
-102.68
-107.44
-110.34
-111.95
-112.39
-111.27
-108.25
-103.46
-97.68
-91.62
-85.41
-78.51
-69.89
-58.13
-41.96
-20.92
4.27
31.71
58.93
83.58
103.99
119.40
129.99
136.46
139.73
140.58
139.63
137.30
133.90
129.74
124.99
119.76
114.00
107.55
100.26
91.98
82.74
72.79
62.67
53.04
44.48
37.30
31.30
25.85
20.05
13.01
4.24
-6.26
-17.99
-30.14
-41.75
-52.00
-60.37
-66.74
-71.37
-74.76
-77.51
-80.11
-82.76
-85.24
-86.87
-86.62
-83.41
-76.46
-65.64
-51.58
-35.55
-19.22
-4.31
7.75
15.89
19.63
19.14
15.36
9.86
4.61
1.39
1.16
3.77
8.02
12.21
14.87
15.34
13.87
11.42
9.21
8.29
9.35
12.55
17.62
23.96
30.73
37.08
42.29
45.82
47.35
46.73
43.92
39.09
32.63
25.22
17.63
10.52
4.11
-1.80
-7.76
-14.24
-21.47
-29.39
-37.79
-46.46
-55.10
-63.07
-69.18
-71.76
-69.10
-60.21
-45.39
-26.29
-5.42
14.65
31.99
45.73
55.84
62.86
67.46
70.26
71.73
72.27
72.19
71.65
70.70
69.26
67.26
64.69
61.55
57.87
53.62
48.81
43.43
37.51
31.06
24.08
16.62
8.82
0.95
-6.61
-13.50
-19.54
-24.82
-29.69
-34.59
-39.82
-45.48
-51.32
-57.01
-62.28
-67.12
-71.84
-76.99
-83.16
-90.66
-99.23
-107.99
-115.49
-120.08
-120.33
-115.49
-105.66
-91.82
-75.51
-58.42
-41.96
-26.99
-13.77
-2.10
8.37
17.90
26.49
33.97
40.11
44.81
48.15
50.35
51.59
51.99
51.61
50.60
49.31
48.23
47.84
48.27
49.18
49.79
49.21
46.73
42.14
35.74
28.18
20.12
11.97
3.80
-4.40
-12.58
-20.41
-27.39
-33.10
-37.61
-41.66
-46.51
-53.36
-62.61
-73.52
-84.26
-92.58
-96.55
-95.26
-89.00
-79.01
-67.08
-54.76
-43.17
-32.90
-24.05
-16.41
-9.75
-3.99
0.41
2.67
2.36
-0.18
-3.86
-7.27
-9.34
-10.06
-10.46
-12.26
-16.98
-24.96
-35.33
-46.68
-57.34
-65.22
-67.72
-61.93
-46.10
-21.31
8.40
36.51
56.02
62.26
56.15
42.36
29.57
24.88
28.46
35.15
38.98
37.44
32.68
29.92
34.08
46.42
65.10
85.39
102.58
113.64
118.16
117.95
115.76
113.65
112.34
111.16
107.28
100.06
90.50
80.47
71.80
65.29
60.50
56.23
51.09
44.19
35.94
27.48
20.11
14.71
11.36
9.42
7.86
5.74
2.30
-2.60
-8.88
-16.25
-24.30
-32.64
-40.85
-48.61
-55.66
-61.97
-67.75
-73.62
-80.32
-88.47
-98.33
-109.60
-121.25
-131.38
-137.72
-138.50
-133.12
-122.30
-107.78
-91.92
-76.98
-64.59
-55.00
-47.52
-41.40
-36.25
-31.91
-28.33
-25.48
-23.20
-21.19
-18.16
-12.27
-2.10
12.99
32.78
56.11
80.75
104.16
120.26
124.08
116.20
101.89
87.25
76.42
71.09
70.86
74.38
80.03
86.95
94.79
102.56
108.81
111.95
111.57
107.15
99.37
89.93
81.58
76.93
76.43
79.06
82.76
85.66
86.20
83.61
77.75
69.19
58.48
43.58
24.70
2.84
-19.75
-40.86
-59.05
-73.94
-85.88
-95.66
-106.72
-121.31
-139.14
-157.35
-172.64
-182.83
-187.19
-186.33
-181.99
-179.76
-184.02
-195.85
-213.10
-232.50
-251.37
-267.40
-278.47
-263.09
-212.26
-135.17
-53.10
16.33
66.23
97.70
115.63
125.68
132.43
135.10
131.73
121.59
105.74
86.01
64.21
42.72
24.43
12.11
4.62
-0.04
-2.82
-4.31
-3.01
1.47
8.53
16.81
24.79
29.41
29.07
25.36
22.03
22.81
29.22
40.34
53.21
64.60
71.09
71.31
67.15
62.27
60.20
62.72
70.07
79.33
88.90
97.70
101.58
98.60
89.08
75.53
60.96
47.27
34.64
22.38
9.42
-5.00
-20.01
-33.82
-43.87
-47.61
-43.21
-30.39
-10.92
11.13
30.40
42.87
47.04
44.55
39.06
34.11
31.23
29.67
27.16
22.04
15.29
8.84
5.09
5.14
8.13
11.74
13.46
11.60
6.01
-1.80
-9.69
-15.67
-18.46
-17.90
-14.84
-10.64
-6.66
-3.71
-1.78
-0.32
1.15
2.91
4.75
6.14
6.47
5.34
2.53
-2.29
-7.83
-13.85
-20.28
-26.97
-33.57
-39.46
-43.82
-45.79
-44.77
-40.70
-34.47
-27.58
-21.83
-18.72
-18.98
-22.19
-26.86
-30.92
-32.47
-30.68
-26.01
-20.29
-16.10
-15.88
-20.90
-30.72
-43.42
-56.44
-67.76
-76.62
-83.57
-89.87
-96.49
-103.40
-109.53
-113.29
-113.22
-108.48
-98.62
-83.31
-62.32
-35.85
-5.14
27.12
57.15
81.08
96.36
102.72
102.19
98.14
93.75
90.80
89.25
87.90
85.42
81.19
75.60
69.66
64.31
59.77
55.39
49.92
42.01
30.70
15.67
-2.72
-23.53
-45.18
-65.56
-82.28
-93.31
-97.67
-96.07
-90.87
-85.45
-83.08
-85.80
-93.87
-105.79
-119.07
-131.05
-139.53
-142.93
-140.19
-130.58
-113.81
-90.36
-61.69
-30.25
1.17
30.09
54.99
75.47
91.82
104.47
113.55
118.86
120.19
117.69
112.09
104.44
95.91
87.47
79.77
73.08
67.34
62.10
56.78
50.86
44.14
36.74
28.89
20.60
11.60
1.58
-9.27
-20.02
-29.27
-35.98
-40.36
-44.07
-49.62
-59.21
-73.66
-91.99
-111.78
-130.10
-144.37
-152.97
-155.45
-152.32
-144.68
-133.68
-120.02
-103.74
-84.34
-61.31
-34.93
-6.63
21.15
45.79
65.60
80.36
91.28
100.13
108.20
115.65
121.64
125.05
125.33
122.88
118.70
113.67
108.24
102.86
99.07
99.84
108.63
127.02
152.66
178.88
196.88
199.50
184.50
155.44
119.66
84.73
55.26
32.05
13.26
-3.43
-19.34
-34.65
-49.21
-63.34
-77.75
-92.79
-107.66
-120.41
-128.61
-130.53
-126.21
-117.65
-107.78
-98.82
-90.80
-81.21
-66.11
-42.15
-8.46
32.63
76.36
117.42
151.76
177.56
195.06
205.62
210.80
211.76
209.25
203.81
195.97
186.15
174.39
160.22
142.67
120.50
92.75
59.19
20.59
-21.25
-63.85
-104.46
-140.41
-169.35
-189.48
-199.92
-201.03
-194.75
-184.44
-174.23
-168.02
-168.58
-176.89
-191.96
-210.95
-229.65
-243.18
-247.13
-238.72
-217.69
-186.61
-150.16
-113.63
-81.28
-55.08
-34.54
-17.52
-1.63
14.71
31.90
49.55
67.08
84.09
100.27
114.98
127.04
134.82
136.87
132.53
122.38
108.38
93.50
81.21
74.67
75.79
84.39
98.07
112.72
124.15
129.69
129.27
125.15
120.62
118.10
118.02
118.81
118.09
114.26
107.68
100.59
96.20
97.12
104.30
116.73
132.13
148.21
163.71
178.66
193.80
209.17
222.98
231.62
231.08
219.43
198.25
172.25
146.66
124.26
103.96
81.99
55.06
23.25
-9.54
-37.94
-58.71
-72.83
-84.67
-98.81
-116.41
-134.11
-145.97
-147.16
-136.62
-117.42
-94.73
-73.19
-55.45
-41.92
-31.67
-23.72
-17.83
-14.45
-14.32
-17.94
-25.57
-37.59
-54.12
-74.64
-97.87
-121.82
-143.82
-161.17
-171.78
-175.11
-173.75
-171.68
-172.77
-179.47
-192.22
-208.53
-223.99
-232.95
-230.43
-215.87
-191.06
-158.81
-122.58
-86.51
-53.86
-27.49
-8.53
3.31
5.69
-2.11
-17.44
-35.70
-53.06
-66.56
-76.69
-85.46
-95.75
-114.49
-145.22
-184.70
-224.87
-257.77
-277.19
-283.09
-279.24
-244.29
-175.29
-90.82
-16.23
35.19
56.91
61.47
57.11
48.51
38.72
30.43
25.57
27.83
40.35
62.82
93.68
127.98
160.80
188.92
208.02
216.59
217.54
216.16
210.15
199.84
187.85
178.26
172.86
167.62
157.24
139.63
117.02
94.02
76.89
70.27
72.02
78.02
83.17
83.92
80.44
76.03
74.36
78.14
86.63
96.21
99.70
91.88
70.37
36.26
-6.77
-54.75
-104.07
-151.96
-195.79
-231.65
-254.55
-260.54
-248.13
-218.85
-177.31
-129.71
-82.07
-38.81
-1.98
28.62
53.76
71.03
79.08
79.31
74.55
67.09
58.17
48.57
39.16
30.38
22.49
15.93
10.69
6.42
2.73
-0.66
-4.13
-7.27
-9.98
-12.41
-14.28
-15.17
-14.35
-11.21
-6.01
-0.07
4.66
6.08
3.02
-4.02
-13.83
-23.39
-30.75
-35.93
-40.09
-44.47
-49.65
-55.41
-60.69
-64.46
-66.35
-63.13
-51.99
-31.40
-2.11
32.21
65.47
91.30
100.56
89.38
62.71
31.97
9.61
3.61
14.88
38.25
66.51
92.54
111.59
121.43
121.54
113.05
98.61
82.05
65.06
51.50
43.53
41.28
43.03
45.91
47.50
46.65
43.43
38.30
31.79
23.41
12.75
0.15
-13.33
-26.21
-37.12
-45.27
-50.60
-53.08
-53.08
-50.75
-45.92
-38.64
-29.55
-19.91
-11.52
-6.15
-4.73
-7.36
-12.98
-19.84
-26.18
-31.10
-34.81
-38.54
-43.73
-51.20
-60.90
-71.76
-82.14
-90.41
-95.47
-96.79
-94.47
-88.88
-80.68
-70.90
-60.88
-52.20
-46.17
-43.41
-43.51
-45.25
-47.07
-47.74
-46.88
-44.89
-42.67
-41.01
-40.27
-40.27
-40.54
-40.59
-40.09
-38.94
-37.15
-34.77
-31.81
-28.27
-24.12
-19.37
-13.99
-7.98
-1.42
5.45
12.19
18.21
22.92
25.90
27.09
26.79
25.54
23.99
22.76
22.38
23.27
25.72
29.76
35.08
40.93
46.26
49.97
51.33
50.25
47.35
43.68
40.33
37.90
36.26
34.63
31.81
26.76
18.97
8.81
-2.44
-12.78
-19.88
-21.72
-17.17
-6.36
9.30
27.52
45.82
62.13
75.26
84.87
91.24
94.95
96.56
96.47
94.76
91.33
86.08
79.02
70.32
60.17
48.74
36.17
22.78
9.37
-2.68
-11.61
-15.89
-15.15
-10.63
-4.89
-0.85
-0.66
-5.01
-13.22
-23.78
-35.00
-45.91
-56.44
-66.81
-76.85
-85.70
-92.18
-95.20
-94.25
-88.89
-79.23
-65.87
-49.12
-28.82
-4.66
23.02
52.86
82.43
109.81
132.96
149.78
159.09
161.07
156.94
148.43
137.24
124.85
113.62
105.01
98.59
93.05
87.16
80.21
71.98
62.42
44.32
16.32
-17.12
-50.27
-79.55
-103.49
-121.22
-132.10
-136.20
-134.81
-131.15
-125.82
-119.81
-113.51
-106.18
-96.70
-84.51
-70.17
-55.33
-41.19
-28.02
-17.53
-11.06
-8.76
-10.04
-13.76
-18.75
-24.10
-28.76
-32.03
-34.22
-35.85
-36.92
-37.01
-35.10
-30.08
-21.32
-8.73
6.97
24.10
40.59
54.92
64.51
67.46
64.48
59.05
54.81
52.86
52.82
51.92
48.49
42.48
35.57
29.80
25.97
24.43
24.59
25.76
26.77
26.49
23.92
18.98
11.86
3.20
-6.10
-15.11
-22.72
-28.13
-30.73
-31.83
-31.01
-28.31
-24.29
-19.72
-15.45
-11.75
-8.38
-4.70
-0.29
4.86
9.72
12.70
13.41
11.09
5.52
-2.77
-12.66
-23.04
-33.23
-43.40
-54.17
-66.15
-79.83
-95.49
-112.57
-129.74
-145.22
-157.30
-164.79
-166.87
-163.15
-153.83
-139.96
-122.37
-101.40
-77.01
-49.14
-18.06
15.69
51.13
86.92
118.74
139.92
145.51
136.14
117.47
96.47
78.34
65.54
60.10
59.63
61.94
65.54
69.28
71.94
72.49
70.49
63.64
51.97
36.53
19.60
3.86
-8.74
-17.65
-23.53
-28.00
-33.02
-39.98
-49.17
-59.03
-66.64
-68.99
-64.12
-51.44
-32.41
-10.32
10.50
26.48
35.77
38.56
36.19
30.59
24.30
19.30
16.54
15.52
15.74
16.74
18.30
20.20
18.37
11.13
0.01
-6.82
-7.30
-1.46
7.67
17.76
26.54
32.07
33.70
31.50
25.83
16.64
4.91
-8.14
-21.31
-34.19
-47.07
-60.05
-73.14
-85.97
-97.97
-107.12
-110.99
-107.50
-96.06
-77.71
-54.33
-28.36
-2.10
22.34
44.05
62.79
78.73
92.01
102.65
110.80
116.54
119.86
120.49
118.39
113.70
106.88
98.51
89.27
79.90
70.90
62.33
53.69
44.19
32.96
19.60
4.29
-12.04
-28.00
-42.13
-53.44
-61.68
-67.36
-71.58
-75.56
-80.27
-86.06
-92.28
-97.33
-99.03
-95.23
-84.62
-67.35
-44.96
-20.12
4.23
25.76
43.25
56.50
66.03
72.64
76.90
79.33
80.16
79.46
77.39
74.42
71.11
68.11
66.13
65.39
66.01
67.50
68.98
69.65
69.23
67.88
66.14
64.72
63.37
61.49
57.78
50.96
40.53
27.01
11.17
-6.44
-25.80
-49.97
-78.29
-106.55
-129.65
-144.32
-149.56
-146.20
-138.50
-127.04
-112.90
-97.71
-83.79
-73.21
-66.82
-62.64
-58.58
-51.98
-40.68
-24.85
-6.17
12.64
29.12
42.05
51.46
55.75
54.37
48.73
41.59
35.57
30.63
24.14
12.86
-4.99
-27.99
-49.63
-61.56
-57.20
-34.22
3.64
47.58
86.72
111.11
110.36
83.35
39.12
-8.13
-45.54
-66.72
-74.26
-74.03
-71.88
-72.18
-75.91
-81.72
-87.20
-87.44
-79.25
-61.92
-37.81
-12.00
9.99
25.17
33.41
36.44
36.57
35.13
32.54
29.17
25.60
22.96
23.16
27.72
36.72
48.56
60.07
67.92
70.27
67.16
60.58
53.77
49.45
48.56
50.04
51.91
50.73
44.76
34.06
20.57
7.31
-2.87
-8.26
-8.68
-5.35
-0.35
4.56
8.02
9.74
10.39
10.74
11.42
12.82
15.01
17.68
20.67
23.25
25.24
27.26
29.29
31.03
32.22
32.60
31.80
29.43
23.94
15.70
6.48
-3.40
-14.21
-25.77
-37.54
-48.90
-59.33
-70.24
-81.60
-90.75
-96.91
-100.43
-101.46
-100.90
-101.02
-105.08
-118.22
-141.37
-168.80
-194.58
-213.06
-218.93
-209.62
-186.11
-138.76
-73.27
-16.03
29.22
66.30
94.84
114.01
123.52
124.44
119.59
110.78
102.19
99.72
103.67
110.33
115.76
117.10
113.39
105.42
89.82
68.31
47.16
30.59
15.74
-0.23
-18.41
-37.53
-55.30
-70.50
-81.43
-86.39
-86.71
-81.59
-71.76
-59.26
-45.80
-31.88
-18.38
-6.24
3.46
9.28
11.66
13.56
18.92
30.87
49.98
73.61
97.82
119.22
136.59
146.40
148.82
145.80
139.56
131.34
121.23
109.00
94.81
79.45
64.03
49.98
38.13
28.60
20.94
14.55
9.06
4.44
0.82
-1.79
-3.27
-3.94
-4.41
-5.48
-7.96
-12.42
-19.03
-27.57
-37.56
-48.10
-58.42
-67.98
-76.63
-84.57
-92.23
-100.10
-108.52
-117.64
-127.11
-136.19
-143.71
-148.08
-147.57
-140.79
-127.23
-107.63
-83.92
-58.58
-34.01
-11.82
7.35
23.62
37.28
48.33
56.44
61.11
62.16
59.99
55.49
49.78
43.73
37.78
31.88
25.73
19.07
12.00
5.04
-1.00
-5.35
-7.56
-7.77
-6.71
-5.40
-4.85
-5.69
-8.10
-11.82
-16.42
-21.48
-26.68
-31.93
-37.29
-43.00
-49.47
-57.13
-66.26
-76.51
-86.79
-95.26
-99.78
-98.59
-90.93
-77.38
-59.67
-40.09
-20.80
-3.25
12.02
25.24
37.02
47.97
58.38
68.09
76.59
83.24
87.71
90.31
92.12
94.63
99.22
106.38
115.44
124.56
131.44
134.15
131.84
124.93
114.83
103.33
91.89
81.39
71.93
62.91
53.15
40.98
24.65
2.97
-23.87
-53.71
-82.55
-105.54
-118.73
-120.50
-112.22
-97.60
-81.01
-65.78
-53.21
-42.69
-32.69
-21.94
-9.95
3.15
17.43
33.79
54.00
79.93
112.27
149.64
188.37
223.38
249.65
263.64
264.18
252.29
230.54
201.98
169.41
134.98
100.26
66.31
33.68
2.39
-28.24
-59.44
-92.60
-128.51
-166.78
-205.45
-241.44
-271.48
-293.34
-306.69
-313.22
-315.84
-317.45
-319.91
-323.47
-327.03
-328.71
-326.47
-318.53
-303.51
-280.68
-250.28
-213.69
-173.48
-132.82
-94.73
-61.33
-33.39
-10.47
8.56
24.88
39.23
51.93
62.84
71.69
78.24
82.53
84.83
85.56
85.21
84.28
83.37
82.97
83.31
84.28
85.45
86.15
85.64
83.31
78.94
72.95
66.09
59.08
52.36
46.11
40.21
34.25
27.60
19.62
10.67
1.45
-7.28
-14.54
-19.02
-19.17
-13.93
-3.21
11.92
31.07
53.26
76.69
99.23
119.37
136.46
150.21
160.18
165.79
169.05
171.74
174.15
175.12
173.39
168.55
160.84
151.00
139.96
131.87
130.01
134.72
143.73
154.33
164.96
175.02
184.53
174.11
134.11
70.58
1.23
-58.60
-102.75
-131.86
-149.48
-159.32
-163.95
-163.38
-157.18
-146.48
-134.02
-122.06
-111.23
-101.01
-89.73
-77.52
-62.74
-45.00
-25.66
-7.04
9.44
23.46
34.88
43.81
49.41
52.31
53.62
54.64
56.64
60.73
67.02
68.68
61.02
42.59
16.66
-11.44
-36.71
-55.61
-66.53
-70.23
-69.35
-66.43
-63.92
-63.10
-64.19
-66.71
-69.87
-72.92
-75.77
-78.73
-81.43
-83.55
-84.73
-84.49
-82.20
-78.30
-71.53
-61.57
-48.77
-33.65
-17.29
-1.06
13.71
26.18
36.14
44.00
50.00
54.30
57.11
58.64
59.21
59.25
59.20
59.42
60.16
61.20
62.23
63.04
63.53
63.62
63.51
63.48
63.86
64.93
66.61
68.63
70.51
71.70
71.68
69.94
65.93
59.12
49.16
35.96
19.97
2.09
-16.56
-35.10
-53.25
-71.06
-88.31
-104.01
-116.27
-122.79
-121.77
-112.75
-96.92
-77.21
-56.78
-37.98
-21.87
-8.58
2.15
10.54
16.69
20.69
21.93
20.28
16.26
10.69
4.10
-3.47
-12.26
-22.29
-33.28
-46.19
-61.48
-78.90
-97.45
-116.03
-133.76
-149.87
-163.50
-173.66
-181.28
-186.83
-189.98
-189.97
-186.69
-181.36
-176.06
-172.75
-160.53
-133.29
-91.18
-39.87
14.66
68.99
120.95
167.78
205.69
230.76
238.61
228.30
203.12
169.84
136.07
107.70
87.73
76.19
71.08
68.30
64.77
59.26
52.21
44.57
36.96
29.69
23.10
17.88
13.93
11.20
9.01
6.01
0.71
-8.54
-21.65
-36.36
-49.00
-57.83
-61.57
-60.92
-58.12
-55.70
-55.50
-57.87
-61.87
-65.77
-68.03
-67.35
-63.12
-55.26
-44.16
-30.57
-15.12
0.40
14.19
24.96
32.43
36.96
39.40
40.74
41.79
42.95
44.14
44.95
44.82
43.45
40.81
37.45
34.32
32.34
31.91
32.56
33.30
32.98
30.91
27.12
22.30
17.44
13.29
10.00
7.15
4.05
0.06
-5.11
-11.54
-18.98
-26.89
-34.30
-39.78
-41.64
-38.33
-29.09
-14.44
3.73
22.70
39.71
52.81
61.42
66.14
68.18
68.69
68.17
66.50
63.22
58.01
51.05
43.02
34.91
27.62
21.68
17.22
14.00
11.71
10.05
8.84
7.98
7.35
6.78
5.99
4.72
2.70
-0.20
-4.04
-8.93
-14.93
-21.97
-29.66
-37.07
-42.84
-45.51
-43.99
-38.04
-28.26
-15.89
-2.31
11.26
23.91
34.96
43.92
50.60
55.29
58.86
62.36
66.53
71.35
75.97
79.16
79.84
77.49
72.10
63.94
53.31
40.52
26.18
11.35
-2.52
-14.16
-22.91
-29.22
-34.37
-39.97
-47.28
-56.77
-68.22
-80.87
-93.74
-105.73
-115.63
-122.08
-123.72
-119.50
-109.12
-93.32
-73.75
-52.70
-32.43
-14.63
-0.08
11.21
19.78
26.21
30.82
33.63
34.45
33.24
30.31
26.35
22.20
18.48
15.25
11.97
7.73
1.72
-6.35
-16.14
-26.78
-37.36
-47.30
-56.41
-64.71
-72.07
-78.09
-82.38
-84.82
-85.72
-85.50
-84.16
-80.83
-74.14
-62.96
-47.38
-29.10
-10.91
4.39
15.00
20.66
22.51
22.73
23.81
28.01
36.60
49.32
64.21
78.03
87.52
90.59
87.08
78.59
67.46
55.61
43.88
32.30
20.79
9.88
0.71
-5.54
-8.47
-8.88
-8.60
-9.91
-14.68
-23.80
-36.76
-51.84
-66.60
-78.50
-85.46
-86.27
-80.76
-69.70
-54.60
-37.27
-19.45
-2.48
12.69
25.54
35.85
43.67
49.36
53.51
56.69
59.33
61.62
63.54
65.03
65.95
66.04
64.80
61.64
56.16
48.46
39.41
30.41
22.89
17.61
14.29
11.71
8.23
2.42
-6.48
-18.43
-32.60
-47.58
-61.54
-72.53
-78.74
-79.00
-73.12
-61.93
-47.07
-30.55
-14.23
0.55
13.07
23.16
30.93
36.55
40.01
41.23
40.11
36.75
31.63
25.46
19.04
12.90
7.12
1.43
-4.55
-11.00
-17.72
-24.24
-30.07
-34.90
-38.68
-41.57
-43.89
-46.01
-48.43
-51.83
-56.88
-63.88
-72.38
-80.90
-87.13
-88.52
-83.09
-70.11
-50.39
-26.01
0.29
25.90
48.91
68.25
83.61
95.16
103.22
108.18
110.40
110.28
108.27
104.87
100.66
96.12
91.61
87.24
82.91
78.40
73.47
68.03
62.15
56.01
49.73
43.33
36.63
29.44
21.64
13.22
4.31
-4.92
-14.28
-23.50
-31.99
-38.78
-42.58
-41.99
-36.16
-25.24
-10.55
5.69
21.13
34.01
43.69
50.61
55.64
59.38
61.73
61.91
58.99
52.44
42.52
30.09
16.26
2.07
-11.71
-24.47
-35.60
-44.50
-50.81
-54.62
-56.63
-57.90
-59.56
-62.39
-66.64
-72.13
-78.52
-85.54
-93.12
-101.44
-110.70
-120.94
-131.75
-142.05
-150.00
-153.32
-149.96
-138.80
-120.30
-96.46
-70.24
-44.50
-21.17
-0.91
16.59
31.92
45.33
56.60
65.21
70.80
73.46
73.66
72.00
68.94
64.65
59.15
52.51
45.05
37.25
29.68
22.79
16.79
11.71
7.43
3.78
0.48
-2.77
-6.23
-9.89
-13.46
-16.51
-18.87
-20.89
-23.37
-27.00
-31.67
-36.05
-37.82
-34.46
-24.24
-6.81
16.70
44.16
73.00
100.69
124.95
143.79
155.64
159.60
155.74
145.24
130.32
113.80
98.49
86.44
78.43
73.88
71.21
68.62
64.85
59.53
53.02
45.81
37.98
29.11
18.64
6.44
-6.79
-19.67
-30.72
-39.14
-45.20
-50.11
-55.47
-62.44
-71.24
-80.91
-89.49
-94.45
-93.42
-84.88
-68.84
-47.22
-23.44
-1.45
15.73
27.19
34.46
40.68
48.92
60.59
74.70
88.36
98.17
101.69
98.20
88.68
75.02
59.20
42.78
26.83
12.13
-0.68
-11.12
-19.08
-24.86
-29.24
-33.20
-37.62
-43.04
-49.50
-56.56
-63.49
-69.61
-74.58
-78.65
-82.62
-87.59
-94.46
-103.29
-113.03
-121.59
-126.42
-125.45
-117.83
-104.32
-86.92
-68.13
-50.06
-33.87
-19.70
-7.15
4.20
14.39
23.07
29.78
34.29
36.73
37.58
37.39
36.60
35.43
33.91
32.04
29.88
27.55
25.22
22.90
20.43
17.38
13.30
7.89
1.17
-6.45
-14.33
-21.93
-29.08
-36.11
-43.84
-53.14
-64.56
-77.81
-91.64
-103.95
-112.38
-115.01
-111.02
-100.93
-86.38
-69.50
-52.14
-35.47
-19.91
-5.44
7.98
20.17
30.66
38.94
44.64
47.80
48.85
48.53
47.72
47.14
47.17
47.75
48.36
48.19
46.33
41.98
34.65
24.30
11.40
-3.02
-17.56
-30.71
-41.32
-48.95
-54.01
-57.58
-61.04
-65.59
-71.93
-80.26
-90.42
-102.02
-114.44
-126.68
-137.28
-144.36
-146.09
-141.34
-130.14
-113.84
-94.62
-74.73
-55.83
-38.65
-23.22
-9.36
2.84
12.95
20.49
25.30
27.88
29.16
30.27
32.08
35.01
39.07
43.90
48.91
53.31
56.25
57.01
55.27
51.38
46.21
41.02
36.93
34.68
34.45
36.05
39.03
42.87
47.05
51.11
54.72
57.54
59.15
58.80
55.46
48.23
36.96
22.79
8.27
-3.30
-8.99
-7.32
1.31
14.91
30.94
47.26
62.70
76.81
89.37
99.86
107.40
111.17
110.88
106.98
100.47
92.46
83.78
74.94
66.23
58.03
50.83
45.16
41.34
39.34
38.70
38.62
38.09
36.01
31.34
23.30
11.76
-2.50
-17.82
-32.12
-43.59
-51.21
-55.00
-55.79
-54.87
-53.57
-53.00
-53.96
-56.81
-61.40
-67.01
-72.33
-75.68
-75.26
-69.60
-57.99
-40.61
-18.61
6.11
31.15
54.17
73.34
87.85
97.93
104.51
108.63
110.79
110.87
108.42
103.21
95.69
86.99
78.63
71.96
67.76
65.95
65.61
65.05
62.15
54.90
42.14
24.32
3.68
-16.31
-32.30
-42.53
-47.59
-50.15
-53.72
-61.12
-73.42
-89.67
-107.50
-123.95
-136.18
-141.95
-139.73
-128.77
-109.33
-82.75
-51.61
-19.40
10.16
33.87
49.94
58.36
60.79
59.82
57.99
56.87
56.71
56.80
56.12
54.24
51.55
49.04
47.68
47.90
49.33
51.25
53.00
54.44
55.80
57.29
58.54
58.60
56.27
50.71
41.90
30.69
18.38
6.13
-5.43
-16.41
-27.34
-38.79
-50.95
-63.43
-75.20
-84.77
-90.55
-91.26
-86.35
-76.17
-61.89
-45.07
-27.24
-9.46
7.76
24.12
39.10
51.63
60.15
63.11
59.70
50.34
36.60
20.68
4.60
-10.24
-23.15
-33.70
-41.31
-45.15
-44.49
-39.15
-29.97
-18.68
-7.40
1.98
8.39
11.76
12.93
13.15
13.60
14.98
17.13
19.14
19.60
17.04
10.43
-0.57
-15.47
-33.07
-51.64
-69.19
-83.74
-93.72
-98.30
-97.64
-92.88
-85.74
-78.04
-71.16
-65.76
-61.87
-59.16
-57.24
-55.85
-54.89
-54.29
-53.88
-53.37
-52.38
-50.60
-47.84
-44.07
-39.39
-33.99
-28.08
-21.90
-15.69
-9.80
-4.72
-0.96
1.03
1.01
-0.85
-3.99
-7.63
-10.98
-13.52
-15.14
-16.09
-16.84
-17.92
-19.74
-22.43
-25.70
-28.68
-29.96
-27.95
-21.41
-10.00
5.50
23.45
41.95
59.61
75.86
90.86
105.04
118.51
130.80
140.95
147.96
151.29
151.09
148.17
143.55
138.09
132.14
125.62
118.29
110.13
101.49
93.06
85.46
78.83
72.77
66.45
59.07
50.31
40.46
30.26
20.57
12.03
4.82
-1.32
-6.96
-12.80
-19.42
-27.26
-36.40
-46.48
-56.63
-65.50
-71.47
-73.16
-69.78
-61.41
-49.06
-34.30
-18.83
-4.07
9.10
20.31
29.52
36.74
41.92
44.90
45.67
44.38
41.52
37.74
33.61
29.50
25.37
20.98
16.12
10.89
5.77
1.42
-1.66
-3.53
-4.86
-6.73
-10.14
-15.44
-22.19
-29.33
-35.65
-40.47
-43.90
-46.76
-50.19
-55.21
-62.43
-71.98
-83.50
-96.09
-108.26
-118.00
-123.15
-122.10
-114.42
-101.16
-84.59
-67.36
-51.62
-38.41
-27.68
-18.71
-10.79
-3.66
2.45
7.08
9.98
11.31
11.65
11.67
11.86
12.23
12.50
12.28
11.40
10.10
8.86
8.09
7.81
7.55
6.50
3.89
-0.65
-6.91
-14.18
-21.58
-28.39
-34.29
-39.48
-44.54
-50.20
-57.07
-65.43
-75.06
-85.16
-94.43
-101.24
-104.02
-101.67
-93.85
-81.18
-65.09
-47.40
-29.84
-13.63
0.65
13.02
23.79
33.21
41.33
47.91
52.72
55.68
57.10
57.55
57.60
57.45
56.94
55.64
53.23
49.79
45.84
42.18
39.38
37.39
35.40
32.25
26.90
19.02
9.17
-1.41
-11.22
-19.30
-25.61
-31.14
-37.51
-46.39
-59.02
-75.80
-96.08
-117.80
-138.21
-154.73
-165.59
-170.26
-169.35
-164.39
-157.05
-148.59
-138.57
-125.68
-108.79
-87.61
-62.67
-35.27
-7.20
19.62
43.30
63.69
81.03
95.08
105.08
110.49
111.86
110.82
109.90
111.37
118.24
131.83
150.69
171.04
188.77
201.01
206.66
206.20
192.38
163.08
124.60
89.29
67.08
60.02
63.02
67.67
68.75
62.47
50.37
36.96
26.58
21.51
21.70
25.61
30.38
34.00
34.84
33.11
29.54
23.87
15.21
2.80
-13.19
-31.67
-50.86
-67.47
-77.96
-80.98
-78.55
-73.62
-68.28
-63.29
-58.71
-54.35
-50.21
-47.58
-44.82
-40.91
-35.46
-28.97
-22.74
-18.42
-17.20
-19.46
-24.69
-30.34
-35.12
-38.47
-40.86
-43.51
-47.79
-54.40
-63.00
-72.31
-80.17
-84.75
-84.47
-78.63
-67.58
-52.64
-35.69
-18.69
-3.27
9.58
19.18
25.34
28.16
27.85
24.75
19.33
12.16
3.80
-5.16
-14.38
-23.38
-31.54
-38.03
-42.06
-43.09
-41.04
-36.27
-29.29
-20.62
-10.58
0.55
12.31
23.92
34.55
43.56
50.85
56.70
61.38
64.63
65.67
63.72
58.89
52.77
48.17
48.06
54.12
65.78
80.38
94.41
105.04
111.05
112.69
110.88
106.25
98.78
88.01
73.66
56.56
38.69
22.49
9.90
1.52
-3.55
-7.01
-10.85
-16.46
-23.98
-32.23
-39.49
-44.12
-45.08
-41.77
-33.53
-19.93
-3.11
13.24
24.70
28.66
26.24
21.31
17.96
18.76
23.13
27.59
27.81
20.94
6.74
-12.06
-30.30
-44.49
-51.83
-51.17
-43.19
-29.67
-12.99
3.74
17.31
25.08
25.44
18.55
5.81
-10.56
-27.85
-41.10
-47.29
-47.24
-44.69
-43.57
-45.50
-49.61
-53.63
-56.80
-58.13
-58.04
-57.55
-57.40
-57.67
-57.92
-57.88
-58.02
-58.01
-58.24
-59.50
-62.13
-65.71
-69.25
-71.58
-71.68
-68.91
-62.81
-53.21
-40.51
-25.58
-9.51
6.60
21.76
35.22
46.52
55.50
62.26
66.97
69.89
71.36
71.67
71.03
69.52
67.24
64.40
61.26
58.05
54.95
51.97
48.99
45.85
42.34
38.32
33.72
28.51
22.71
16.48
9.99
3.43
-3.07
-9.58
-16.37
-23.87
-32.54
-42.49
-53.26
-63.60
-71.69
-75.58
-73.84
-66.16
-53.46
-37.69
-21.22
-6.07
6.46
16.03
23.05
28.32
32.62
36.41
39.67
42.00
42.81
41.66
38.50
33.82
28.41
23.22
18.95
15.90
13.97
12.74
11.71
10.35
8.21
4.99
0.55
-4.81
-10.34
-14.79
-16.77
-15.41
-10.94
-5.00
-0.33
0.36
-4.32
-13.54
-24.25
-32.30
-33.94
-27.20
-12.29
9.02
34.41
61.82
89.41
115.19
136.75
151.70
158.61
157.91
151.96
144.15
137.38
132.85
129.79
126.26
120.35
111.12
98.82
84.38
68.69
52.15
34.66
15.95
-4.02
-24.85
-45.73
-65.56
-83.29
-98.19
-110.07
-119.38
-127.08
-134.38
-142.39
-151.73
-162.31
-173.25
-183.05
-189.87
-192.17
-189.01
-180.41
-167.22
-150.87
-132.97
-114.90
-97.65
-81.64
-66.80
-52.84
-39.40
-26.33
-13.85
-2.43
7.31
14.94
20.34
23.75
25.55
26.19
26.09
25.68
25.36
25.54
26.41
27.88
29.51
30.62
30.55
28.82
25.37
20.51
14.86
9.17
4.04
-0.27
-4.04
-8.05
-13.35
-20.79
-30.43
-41.28
-51.36
-58.22
-59.87
-55.50
-45.90
-33.28
-20.38
-9.41
-1.32
4.44
9.36
15.05
22.38
31.20
40.55
49.23
56.36
61.69
65.53
68.35
70.49
72.02
72.77
72.63
71.68
70.25
68.74
67.37
65.97
63.96
60.61
55.34
48.09
39.36
30.08
21.14
13.08
5.83
-1.21
-8.96
-18.25
-29.43
-42.13
-55.13
-66.54
-74.29
-76.69
-73.02
-63.75
-50.39
-34.92
-19.13
-4.18
9.49
21.94
33.36
43.77
53.02
60.84
67.08
71.71
74.83
76.61
77.14
76.55
74.98
72.69
70.07
67.48
65.11
62.76
59.95
55.97
50.21
42.36
32.53
21.15
8.82
-3.90
-16.53
-28.70
-40.14
-50.75
-60.63
-70.04
-79.09
-87.40
-93.95
-97.19
-95.61
-88.39
-75.87
-59.53
-41.46
-23.73
-7.69
6.14
17.91
28.00
36.62
43.69
48.98
52.33
53.86
54.09
53.69
53.27
53.11
53.07
52.75
51.76
49.94
47.43
44.53
41.42
38.00
33.99
29.04
23.04
16.15
8.78
1.38
-5.78
-12.72
-19.70
-27.16
-35.51
-45.00
-55.42
-65.98
-75.36
-81.91
-84.21
-81.49
-73.93
-62.64
-49.17
-35.09
-21.59
-9.32
1.48
10.79
18.67
25.17
30.37
34.39
37.35
39.32
40.33
40.34
39.34
37.43
34.86
32.01
29.35
27.23
25.79
24.86
24.00
22.63
20.24
16.62
11.91
6.53
0.92
-4.58
-9.92
-15.31
-21.13
-27.75
-35.37
-43.83
-52.49
-60.31
-65.93
-68.07
-65.94
-59.51
-49.61
-37.70
-25.41
-14.05
-4.33
3.62
10.10
15.48
20.00
23.71
26.49
28.18
28.63
27.82
25.86
23.00
19.60
16.06
12.76
9.86
7.35
5.01
2.53
-0.42
-4.06
-8.44
-13.46
-18.87
-24.42
-29.83
-34.94
-39.69
-44.25
-48.99
-54.33
-60.60
-67.69
-74.91
-81.05
-84.63
-84.46
-80.00
-71.58
-60.36
-47.82
-35.37
-23.93
-13.85
-5.03
2.83
9.96
16.37
21.87
26.20
29.21
30.96
31.71
31.80
31.56
31.16
30.71
30.26
29.87
29.63
29.54
29.45
29.05
27.91
25.63
21.97
16.99
11.11
4.91
-1.07
-6.54
-11.68
-17.04
-23.31
-30.89
-39.55
-48.33
-55.77
-60.31
-60.82
-56.87
-48.82
-37.63
-24.60
-11.03
1.98
13.64
23.50
31.37
37.27
41.37
43.88
45.04
45.06
44.14
42.46
40.22
37.64
34.90
32.20
29.71
27.53
25.70
24.06
22.37
20.28
17.53
14.01
9.89
5.44
0.99
-3.29
-7.55
-12.16
-17.68
-24.52
-32.68
-41.58
-50.08
-56.68
-59.85
-58.54
-52.50
-42.35
-29.40
-15.20
-1.18
11.71
23.05
32.90
41.52
49.13
55.79
61.42
65.87
69.02
70.86
71.56
71.46
70.88
69.86
68.17
65.49
61.63
56.64
50.82
44.67
38.74
33.42
28.66
24.10
19.31
14.13
8.48
2.30
-4.31
-11.07
-17.38
-22.35
-24.87
-23.80
-18.38
-8.94
2.37
11.92
16.36
15.03
9.78
2.83
-4.69
-12.48
-20.72
-28.82
-35.44
-39.00
-38.39
-33.96
-27.60
-22.14
-19.97
-22.89
-30.94
-42.52
-54.70
-64.86
-71.60
-75.26
-77.43
-79.62
-83.34
-88.51
-89.83
-83.17
-67.43
-45.31
-21.44
-1.64
14.05
26.01
35.19
43.02
49.79
55.67
60.88
65.68
70.05
74.01
76.25
76.34
75.15
73.64
72.17
69.96
65.23
56.00
41.17
19.73
-7.09
-35.79
-62.31
-83.29
-97.05
-103.70
-104.91
-97.27
-81.71
-63.05
-46.62
-34.84
-27.05
-21.20
-15.14
-7.03
4.50
18.69
33.94
48.39
60.66
69.06
72.45
70.65
64.64
56.04
45.83
35.13
25.56
18.85
16.14
18.74
26.59
38.22
51.10
61.76
67.41
67.06
61.74
53.79
46.66
43.87
47.91
59.31
76.08
94.20
108.31
112.54
101.11
71.38
25.58
-28.91
-81.57
-122.22
-144.82
-149.40
-141.45
-129.93
-121.75
-119.42
-121.53
-125.38
-129.16
-132.96
-137.68
-143.32
-149.05
-151.52
-146.63
-132.22
-109.64
-82.98
-57.49
-37.19
-15.72
8.16
31.57
50.72
64.01
71.45
73.59
70.81
64.07
54.99
44.30
33.46
24.26
18.05
13.71
11.31
10.44
10.89
12.77
15.28
17.95
20.66
23.08
24.38
23.59
19.68
12.05
0.37
-14.82
-32.65
-51.54
-69.59
-84.87
-95.42
-99.81
-97.28
-88.03
-73.58
-56.05
-37.47
-19.34
-2.46
13.07
27.37
40.54
52.42
62.61
70.65
76.49
80.41
82.81
84.00
84.00
82.66
79.88
75.84
70.91
65.61
60.20
54.55
48.07
40.20
30.83
20.66
11.04
3.35
-1.56
-3.77
-4.22
-4.28
-5.31
-8.27
-13.52
-20.82
-29.31
-37.50
-43.49
-45.39
-42.03
-33.33
-20.52
-5.69
8.92
21.55
31.31
38.07
42.10
43.81
43.53
41.57
38.29
34.23
29.97
26.06
22.81
20.23
18.15
16.35
14.72
13.28
12.04
10.91
9.59
7.62
4.58
0.28
-5.10
-11.12
-17.26
-23.14
-28.70
-34.15
-39.95
-46.59
-54.42
-63.38
-72.88
-81.66
-87.98
-89.97
-86.23
-76.35
-61.13
-42.45
-22.63
-3.77
12.87
26.98
38.84
48.84
57.06
63.16
66.71
67.53
66.05
63.11
59.64
56.27
53.09
49.78
45.98
41.55
36.69
31.76
27.02
22.38
17.52
11.97
5.48
-1.92
-9.93
-18.13
-26.23
-34.22
-42.45
-51.46
-61.73
-73.27
-85.35
-96.46
-104.52
-107.56
-104.32
-94.79
-80.22
-62.75
-44.65
-27.78
-13.14
-0.96
8.97
16.96
23.17
27.62
30.29
31.33
31.07
29.91
28.13
25.88
23.17
20.16
17.33
15.44
15.30
17.37
21.41
26.46
31.18
34.37
35.46
34.72
32.92
30.93
29.28
27.88
26.12
23.13
18.20
11.01
1.88
-8.22
-17.75
-24.95
-28.23
-26.58
-19.94
-9.09
4.48
19.09
33.32
46.25
57.53
67.14
75.13
81.43
85.83
88.07
88.02
85.82
81.84
76.59
70.55
64.02
57.15
50.02
42.71
35.37
28.16
21.17
14.26
7.12
-0.73
-9.71
-19.99
-31.37
-43.34
-55.17
-66.23
-76.19
-85.10
-93.31
-101.20
-108.96
-116.43
-123.07
-128.04
-130.21
-128.23
-120.63
-106.15
-84.10
-54.81
-19.78
18.50
57.11
93.40
125.49
152.39
173.74
189.44
199.49
203.96
203.20
197.83
188.57
175.90
159.88
140.21
116.58
89.19
59.03
27.83
-2.34
-29.59
-52.56
-70.66
-83.95
-93.08
-98.97
-102.70
-105.21
-107.13
-108.74
-109.99
-110.75
-111.01
-111.04
-111.32
-112.44
-114.88
-118.82
-123.99
-129.51
-134.00
-135.80
-133.36
-125.76
-112.98
-95.98
-76.41
-56.12
-36.68
-19.05
-3.61
9.74
21.23
31.02
39.16
45.63
50.41
53.61
55.49
56.35
56.45
55.89
54.56
52.31
49.08
45.02
40.51
35.95
31.61
27.44
23.05
17.88
11.39
3.37
-5.95
-15.95
-25.76
-34.64
-42.18
-48.49
-54.08
-59.70
-66.05
-73.61
-82.40
-91.90
-100.99
-108.08
-111.41
-109.54
-101.87
-88.85
-71.92
-52.99
-33.89
-15.86
0.56
15.31
28.56
40.33
50.50
58.83
65.19
69.62
72.38
73.88
74.55
74.73
74.59
74.16
73.35
72.04
70.20
67.90
65.29
62.46
59.34
55.67
51.13
45.42
38.50
30.57
22.05
13.45
5.18
-2.61
-10.01
-17.30
-24.88
-33.22
-42.71
-53.55
-65.53
-77.84
-89.04
-97.32
-100.87
-98.56
-90.29
-77.09
-60.85
-43.70
-27.44
-13.14
-1.14
8.71
16.69
23.00
27.67
30.65
32.04
32.12
31.41
30.57
30.15
30.51
31.69
33.50
35.57
37.53
38.95
39.56
39.21
37.91
35.77
32.90
29.30
24.83
19.31
12.74
5.45
-1.81
-8.10
-12.67
-15.29
-16.40
-16.94
-18.05
-20.72
-25.40
-31.96
-39.56
-46.74
-51.71
-52.81
-48.95
-40.11
-27.37
-12.60
2.11
15.15
25.72
33.83
40.00
44.75
48.32
50.72
51.79
51.49
49.95
47.52
44.55
41.29
37.80
33.96
29.62
24.77
19.66
14.78
10.72
7.95
6.62
6.47
6.93
7.38
7.42
6.97
6.30
5.81
5.74
6.01
6.27
5.91
4.36
1.12
-4.10
-11.30
-20.06
-29.45
-38.03
-44.06
-45.99
-43.01
-35.37
-24.41
-12.06
-0.20
9.84
17.47
22.65
25.47
25.83
23.37
17.72
8.98
-2.12
-14.18
-25.49
-34.53
-40.31
-42.48
-41.24
-37.12
-30.74
-22.78
-13.84
-4.52
4.65
13.14
20.40
25.89
29.18
30.11
28.96
26.41
23.35
20.54
18.35
16.60
14.81
12.31
8.58
3.32
-3.48
-11.38
-19.52
-26.55
-30.94
-31.45
-27.57
-19.75
-9.34
1.89
12.33
20.89
27.18
31.37
33.86
35.02
35.09
34.23
32.66
30.75
28.95
27.68
27.12
27.12
27.33
27.37
27.13
26.72
26.47
26.58
27.00
27.29
26.79
24.86
21.13
15.66
8.94
1.71
-5.30
-11.63
-17.25
-22.56
-28.20
-34.85
-42.94
-52.43
-62.61
-72.22
-79.60
-83.03
-81.28
-73.95
-61.72
-46.12
-29.14
-12.63
2.13
14.54
24.49
32.10
37.42
40.43
41.18
39.92
37.26
34.03
31.07
28.96
27.82
27.36
27.04
26.36
25.05
23.18
21.02
18.78
16.45
13.75
10.21
5.51
-0.29
-6.70
-12.98
-18.44
-22.74
-26.05
-28.94
-32.17
-36.52
-42.44
-49.94
-58.41
-66.52
-72.42
-74.14
-70.24
-60.29
-45.12
-26.57
-6.83
12.20
29.33
44.15
56.64
66.82
74.48
79.34
81.15
80.04
76.55
71.51
65.85
60.36
55.64
52.07
49.90
49.31
50.26
52.40
54.89
56.55
56.07
52.54
45.75
36.29
25.35
14.20
3.68
-6.03
-15.37
-25.13
-36.05
-48.64
-63.02
-78.85
-95.19
-110.47
-122.61
-129.47
-129.54
-122.56
-109.74
-93.40
-76.17
-60.09
-46.06
-33.95
-23.11
-13.02
-3.66
4.52
11.00
15.48
18.13
19.47
20.13
20.72
21.78
23.74
26.99
31.63
37.38
43.41
48.51
51.34
50.88
46.68
38.99
28.63
16.73
4.49
-7.12
-17.48
-26.42
-34.25
-41.65
-49.50
-58.46
-68.57
-78.94
-87.80
-93.00
-92.69
-86.05
-73.68
-57.42
-39.73
-22.88
-8.37
3.28
12.23
18.85
23.30
25.41
24.91
21.65
15.96
8.60
0.64
-6.91
-13.39
-18.56
-22.55
-25.67
-28.14
-30.04
-31.37
-32.11
-32.41
-32.57
-32.91
-33.71
-35.08
-36.96
-39.17
-41.50
-43.83
-46.15
-48.34
-50.50
-52.95
-56.31
-61.12
-67.57
-75.24
-83.00
-89.16
-91.62
-88.68
-79.58
-64.84
-46.00
-25.11
-4.12
15.57
33.26
49.34
64.42
78.69
91.76
102.87
111.49
117.55
121.50
124.11
127.50
133.20
141.28
150.25
158.16
163.65
166.42
166.88
165.73
166.28
170.76
178.91
187.75
193.50
193.64
187.63
176.51
162.27
151.57
149.76
158.05
172.96
189.08
202.32
211.10
215.82
217.85
224.52
241.50
270.08
306.58
345.95
385.09
423.21
459.98
457.98
393.17
267.24
110.11
-41.86
-166.03
-256.44
-317.33
-356.52
-381.38
-390.96
-383.34
-359.27
-324.50
-287.34
-255.20
-232.60
-220.69
-218.17
-216.78
-209.81
-194.10
-171.51
-147.10
-126.18
-112.26
-105.91
-105.80
-106.48
-104.06
-97.80
-90.73
-87.49
-91.49
-102.96
-118.63
-135.02
-143.53
-139.70
-124.11
-102.04
-80.94
-66.85
-63.73
-66.94
-70.27
-67.69
-56.38
-36.68
-11.54
16.41
42.41
59.24
63.24
56.37
44.72
33.25
21.40
7.20
-10.48
-31.05
-49.84
-61.35
-62.95
-55.60
-43.47
-31.57
-23.20
-19.38
-18.99
-18.13
-11.85
2.56
25.18
53.13
81.53
104.90
118.33
115.00
93.36
60.89
29.14
6.78
-4.47
-7.78
-7.18
-5.53
-3.90
-1.52
2.08
3.80
0.11
-12.03
-33.00
-59.50
-85.08
-102.04
-103.79
-82.76
-44.57
-1.69
33.40
53.85
59.92
56.51
49.25
41.62
33.96
24.24
12.30
0.89
-5.88
-5.32
1.77
11.39
18.45
19.13
11.80
-1.45
-16.60
-29.71
-38.54
-43.23
-44.06
-41.48
-35.87
-28.14
-18.81
-8.38
2.42
12.80
22.06
29.94
36.56
42.13
46.33
49.10
50.42
50.32
49.14
47.65
47.10
48.93
53.95
61.75
71.29
81.13
89.72
95.94
99.21
97.73
91.59
83.10
73.02
61.58
49.24
36.30
22.93
9.21
-4.89
-19.10
-33.22
-47.22
-60.59
-72.52
-82.24
-89.32
-94.04
-97.83
-102.41
-109.52
-120.24
-133.99
-148.24
-158.92
-161.37
-151.92
-129.87
-97.42
-59.51
-22.57
7.46
26.72
34.37
32.22
23.64
11.33
-2.30
-15.35
-26.55
-35.43
-42.48
-49.02
-56.69
-66.61
-79.61
-94.23
-107.14
-114.62
-114.51
-107.13
-94.85
-80.86
-61.42
-37.02
-11.74
9.28
23.78
33.56
42.67
54.70
70.62
88.53
103.46
111.25
110.80
104.38
96.02
89.18
85.42
84.13
83.95
82.83
79.94
75.65
70.78
65.73
60.20
54.54
48.38
42.76
38.63
36.87
37.84
41.13
45.72
49.97
52.74
53.11
51.82
49.72
47.57
45.58
43.15
39.10
31.65
19.76
2.79
-17.01
-36.20
-51.02
-58.79
-59.23
-52.01
-40.63
-27.74
-19.63
-20.34
-30.00
-44.64
-59.15
-69.84
-75.59
-77.20
-75.80
-76.29
-77.60
-78.24
-77.35
-75.13
-72.58
-71.16
-72.02
-69.88
-63.88
-54.12
-42.40
-30.56
-19.22
-7.06
8.47
30.03
58.14
88.60
115.19
130.97
131.61
117.37
94.65
68.08
42.20
20.04
1.45
-14.49
-28.72
-41.12
-50.73
-57.05
-59.71
-60.34
-61.05
-64.41
-71.46
-81.37
-92.59
-101.69
-106.47
-106.91
-104.53
-100.50
-96.74
-94.72
-94.58
-94.41
-90.71
-80.27
-61.60
-35.03
-1.46
35.77
72.41
105.46
134.60
161.71
188.51
214.68
237.67
256.43
269.11
274.03
271.18
263.05
253.89
247.57
245.72
232.02
199.96
153.18
100.99
50.77
5.99
-31.94
-62.62
-86.51
-106.92
-122.99
-133.87
-139.67
-141.42
-140.28
-137.07
-130.64
-122.52
-115.42
-109.78
-106.37
-106.53
-111.76
-122.63
-137.30
-152.36
-164.56
-171.21
-169.09
-156.97
-136.25
-110.22
-82.46
-54.22
-25.09
5.16
36.09
67.60
99.33
130.68
161.03
181.38
184.25
168.76
141.04
109.20
79.53
55.68
39.40
30.66
29.34
33.52
41.23
49.82
56.26
58.42
55.87
49.65
41.62
31.10
19.81
9.41
0.16
-9.09
-19.76
-32.55
-47.05
-61.95
-75.39
-84.47
-86.64
-80.79
-67.61
-49.25
-28.54
-8.39
8.91
22.14
31.70
38.77
44.43
49.17
52.92
55.34
56.11
55.11
52.46
48.71
44.43
40.01
35.56
31.04
26.29
21.07
15.20
8.63
1.60
-5.62
-12.88
-20.27
-28.07
-36.64
-46.19
-56.77
-68.35
-80.84
-94.01
-107.22
-119.27
-128.33
-132.42
-130.00
-120.57
-104.89
-84.74
-62.40
-39.96
-18.91
-0.09
16.25
30.11
41.57
50.64
57.29
61.48
63.32
63.10
61.29
58.48
55.21
51.84
48.53
45.22
41.76
37.98
33.78
29.13
24.06
18.58
12.73
6.53
0.01
-6.78
-13.91
-21.61
-30.25
-40.20
-51.53
-63.73
-75.53
-85.01
-90.00
-88.60
-79.84
-64.08
-42.96
-18.98
5.17
27.36
46.40
62.08
74.80
85.14
93.42
99.57
103.32
104.48
103.24
100.14
95.91
91.19
86.37
81.60
76.92
72.40
68.17
64.29
60.63
56.88
52.56
47.34
41.10
33.99
26.26
17.98
8.94
-1.34
-13.31
-26.98
-41.69
-55.93
-67.65
-74.68
-75.41
-69.29
-57.05
-40.46
-21.79
-3.18
13.84
28.45
40.42
49.72
56.28
59.99
60.80
58.86
54.62
48.69
41.66
34.02
26.06
17.99
10.03
2.44
-4.50
-10.66
-16.09
-21.07
-25.96
-30.89
-35.73
-39.99
-43.11
-44.75
-45.06
-44.78
-45.12
-47.36
-52.40
-60.36
-70.29
-80.27
-87.76
-90.29
-86.17
-75.06
-58.09
-37.43
-15.65
5.07
23.30
38.43
50.38
59.33
65.51
69.10
70.32
69.43
66.76
62.65
57.44
51.44
44.95
38.27
31.77
25.79
20.62
16.42
13.06
10.15
7.05
3.07
-2.31
-9.25
-17.45
-26.30
-35.05
-43.09
-50.19
-56.63
-63.17
-70.79
-80.31
-91.86
-104.54
-116.41
-124.98
-127.89
-123.72
-112.43
-95.31
-74.55
-52.45
-30.93
-11.21
6.12
20.81
32.76
41.90
48.26
52.05
53.66
53.65
52.55
50.73
48.31
45.23
41.41
36.91
32.00
27.14
22.81
19.33
16.63
14.30
11.67
8.06
3.10
-3.19
-10.34
-17.70
-24.64
-30.82
-36.33
-41.65
-47.57
-54.90
-64.16
-75.30
-87.45
-98.91
-107.41
-110.65
-107.09
-96.45
-79.85
-59.46
-37.72
-16.64
2.59
19.57
34.33
46.92
57.15
64.73
69.43
71.36
71.01
69.08
66.22
62.92
59.38
55.59
51.45
46.91
42.10
37.24
32.59
28.23
23.98
19.47
14.21
7.91
0.59
-7.33
-15.21
-22.40
-28.46
-33.37
-37.46
-41.35
-45.82
-51.68
-59.49
-69.34
-80.48
-91.27
-99.43
-102.69
-99.44
-89.38
-73.54
-53.96
-33.00
-12.69
5.65
21.42
34.47
44.82
52.46
57.36
59.63
59.62
57.94
55.32
52.41
49.51
46.58
43.37
39.68
35.60
31.49
27.84
24.99
22.89
21.09
18.93
15.80
11.40
5.82
-0.53
-7.09
-13.35
-19.00
-24.06
-28.80
-33.75
-39.59
-46.89
-55.93
-66.39
-77.22
-86.66
-92.63
-93.24
-87.39
-75.19
-57.95
-37.81
-17.14
2.10
18.63
31.90
41.87
48.75
52.83
54.51
54.23
52.57
50.13
47.38
44.63
41.96
39.25
36.28
32.96
29.30
25.51
21.90
18.76
16.16
13.83
11.28
7.91
3.34
-2.41
-8.91
-15.57
-21.89
-27.71
-33.30
-39.22
-46.17
-54.63
-64.60
-75.34
-85.37
-92.68
-95.23
-91.58
-81.36
-65.45
-45.67
-24.28
-3.39
15.46
31.36
43.91
53.06
58.94
61.89
62.40
61.05
58.45
55.09
51.30
47.23
42.98
38.66
34.45
30.61
27.35
24.70
22.42
20.11
17.26
13.53
8.80
3.23
-2.85
-9.09
-15.24
-21.22
-27.14
-33.39
-40.45
-48.85
-58.85
-70.16
-81.69
-91.69
-98.07
-98.99
-93.45
-81.64
-64.88
-45.24
-24.96
-5.99
10.41
23.64
33.67
40.75
45.27
47.55
47.91
46.66
44.08
40.51
36.16
31.21
25.81
20.18
14.68
9.72
5.74
2.89
0.93
-0.75
-2.85
-5.87
-9.86
-14.36
-18.61
-21.92
-23.93
-24.92
-25.76
-27.66
-31.74
-38.64
-48.13
-59.10
-69.48
-76.81
-78.93
-74.75
-64.57
-49.91
-33.13
-16.82
-3.10
7.06
13.85
18.16
20.96
22.91
24.39
25.36
25.44
24.00
20.91
16.41
11.11
5.78
1.45
-0.43
1.52
7.99
18.43
31.77
46.40
60.61
72.53
79.33
79.69
75.22
69.64
66.19
66.82
71.48
78.37
84.63
87.59
86.28
81.52
77.03
73.80
72.33
72.14
71.76
69.10
62.54
52.30
40.28
29.31
21.87
19.98
24.34
33.45
44.53
53.86
58.51
56.79
48.85
36.27
21.95
8.75
1.30
2.52
11.43
24.73
38.70
50.92
60.09
66.01
69.04
69.84
68.85
66.05
62.08
57.44
52.73
48.35
44.74
42.25
41.10
40.89
40.58
42.51
47.11
53.77
60.86
66.09
67.22
62.77
52.44
37.44
20.33
3.55
-10.87
-22.01
-30.00
-35.63
-39.77
-43.08
-45.87
-48.10
-50.02
-51.75
-53.29
-54.52
-55.24
-55.36
-54.98
-54.50
-54.27
-54.71
-55.84
-57.26
-58.56
-59.29
-59.14
-58.14
-56.60
-54.96
-53.73
-53.20
-53.35
-54.06
-54.87
-55.05
-53.88
-51.01
-46.53
-40.97
-34.96
-29.04
-23.93
-19.87
-16.72
-14.34
-12.80
-12.30
-12.86
-14.19
-15.83
-18.42
-22.16
-26.62
-31.29
-36.16
-41.44
-47.17
-52.97
-58.31
-64.97
-73.49
-82.86
-91.74
-99.86
-107.83
-116.28
-125.31
-134.59
-147.08
-163.43
-181.54
-198.75
-214.16
-228.56
-242.98
-257.72
-272.02
-288.51
-305.68
-317.67
-318.11
-304.35
-278.25
-244.17
-207.28
-143.36
-52.25
45.46
126.20
180.32
210.43
223.14
225.29
222.48
218.64
211.52
200.83
189.65
181.75
178.70
179.99
184.88
192.32
200.34
202.94
196.86
183.14
165.18
146.12
124.00
94.86
58.78
18.83
-22.56
-61.71
-94.15
-116.29
-127.09
-129.06
-123.34
-111.04
-94.05
-75.72
-58.30
-42.08
-25.46
-9.13
7.01
23.96
42.53
62.45
82.06
99.42
112.95
121.68
125.12
123.74
118.90
112.08
104.23
95.84
87.14
78.44
70.19
62.78
56.62
51.72
47.38
42.38
35.62
26.62
15.60
3.31
-9.57
-22.51
-35.35
-48.39
-62.21
-77.45
-94.53
-113.40
-133.23
-152.33
-168.20
-178.25
-180.57
-174.62
-161.34
-142.77
-121.40
-99.39
-78.25
-58.82
-41.56
-26.88
-15.15
-6.61
-1.25
1.32
1.76
0.87
-0.62
-2.05
-2.92
-2.76
-1.01
2.96
9.72
19.59
32.35
47.14
62.59
77.15
89.50
98.92
105.36
109.25
111.14
111.45
110.30
107.58
103.01
96.28
87.17
75.77
62.74
49.59
38.56
32.34
33.25
42.45
59.44
82.11
107.37
132.06
153.74
171.11
183.82
192.14
196.48
197.16
194.47
188.71
180.39
170.22
158.97
147.42
136.18
125.67
116.08
107.33
99.09
90.75
81.67
71.29
59.45
46.45
33.01
19.95
7.79
-3.54
-14.72
-26.86
-41.04
-57.96
-77.74
-99.78
-122.81
-144.90
-163.66
-176.62
-181.88
-178.73
-168.03
-152.09
-133.77
-115.51
-98.56
-82.89
-67.69
-52.22
-36.39
-20.89
-6.68
5.51
15.61
24.10
31.73
39.06
46.21
52.91
58.74
63.44
67.05
69.92
72.39
74.65
76.43
77.14
76.03
72.49
66.37
58.02
48.23
37.90
27.68
17.78
7.92
-2.57
-14.50
-28.57
-45.02
-63.29
-81.94
-98.71
-111.03
-116.75
-114.77
-105.49
-90.57
-72.38
-53.21
-34.76
-18.00
-3.37
8.96
18.78
25.84
30.04
31.50
30.70
28.44
25.64
23.13
21.38
20.42
19.83
19.06
17.71
15.74
13.45
11.21
9.15
6.92
3.85
-0.76
-7.27
-15.43
-24.53
-33.67
-42.15
-49.74
-56.70
-63.62
-71.12
-79.68
-89.43
-100.09
-110.77
-119.98
-125.74
-125.99
-119.20
-104.93
-84.08
-58.57
-30.76
-2.75
24.00
48.74
71.08
90.67
107.16
120.24
129.81
136.24
140.36
143.12
145.33
147.33
149.11
150.37
150.72
149.72
147.28
143.87
140.58
138.75
139.34
142.42
146.99
151.29
153.21
151.34
145.41
136.03
123.85
108.94
90.70
68.36
41.68
10.73
-23.17
-57.50
-89.38
-116.67
-138.40
-154.51
-165.26
-170.99
-173.64
-175.00
-176.00
-176.93
-178.13
-180.19
-183.51
-187.96
-193.12
-201.15
-213.68
-230.36
-248.63
-265.31
-277.71
-283.86
-282.68
-274.30
-263.42
-254.78
-250.58
-250.03
-251.34
-253.10
-254.42
-254.51
-232.27
-177.71
-97.84
-12.13
62.41
118.55
156.03
177.25
185.24
183.25
171.58
151.90
129.43
112.24
107.82
119.79
146.55
181.60
215.64
238.89
244.59
233.04
210.70
185.72
163.61
145.67
130.05
114.18
95.40
73.57
51.62
33.81
23.11
20.02
23.07
29.77
37.45
42.84
42.87
35.38
20.06
-1.27
-25.13
-47.24
-63.95
-73.32
-76.02
-74.62
-72.18
-70.95
-71.79
-74.09
-76.25
-76.68
-74.71
-70.83
-66.34
-62.37
-59.25
-56.57
-53.83
-51.10
-49.10
-48.57
-49.42
-50.28
-48.87
-43.03
-31.90
-16.35
1.41
18.83
33.98
46.01
55.03
61.69
66.65
70.31
72.67
73.65
73.19
71.39
68.43
64.60
60.38
56.28
52.82
50.47
49.78
51.02
53.95
57.59
60.50
61.29
58.85
52.56
42.36
28.99
13.66
-2.38
-17.94
-31.72
-42.08
-47.65
-48.12
-44.41
-37.96
-30.16
-21.72
-12.58
-2.33
9.20
20.84
29.83
31.81
23.60
6.59
-13.09
-29.04
-39.48
-46.05
-51.25
-57.35
-65.60
-74.03
-80.90
-85.10
-86.80
-87.13
-87.17
-87.55
-88.31
-88.83
-87.98
-84.96
-79.66
-73.06
-66.69
-61.91
-59.59
-60.16
-63.37
-68.14
-72.88
-75.53
-74.18
-67.37
-54.43
-35.81
-13.13
11.37
35.47
57.44
76.38
92.06
104.74
114.88
122.90
129.01
133.30
135.79
136.55
135.82
133.91
131.16
127.79
123.95
119.83
115.71
111.87
108.48
105.58
103.01
100.41
97.13
92.55
86.42
78.75
69.73
59.71
49.15
38.57
28.36
18.32
7.90
-3.18
-14.73
-25.91
-35.46
-41.85
-43.83
-40.61
-32.39
-21.71
-10.73
-0.79
7.38
12.33
11.64
3.07
-13.56
-36.14
-60.42
-81.21
-94.73
-99.80
-97.85
-91.57
-84.79
-77.51
-68.99
-58.48
-45.63
-31.14
-16.59
-3.75
6.30
13.59
19.34
24.78
30.74
37.45
44.23
49.65
51.93
49.53
41.59
28.24
10.19
-11.07
-33.31
-53.95
-70.47
-80.90
-84.17
-80.35
-70.38
-56.15
-39.78
-23.17
-7.68
5.94
17.52
27.30
35.69
43.10
49.66
55.23
59.57
62.44
63.73
63.51
61.95
59.27
55.69
51.47
46.84
42.07
37.35
32.60
27.52
21.58
14.31
5.52
-4.50
-15.07
-25.28
-34.41
-42.13
-48.71
-54.93
-61.78
-70.13
-80.34
-91.95
-103.62
-113.34
-118.89
-118.41
-110.99
-96.95
-77.79
-55.80
-33.42
-12.63
5.39
20.28
32.31
41.96
49.61
55.43
59.40
61.54
62.06
61.35
59.88
58.01
55.89
53.47
50.65
47.40
43.92
40.54
37.61
35.22
33.12
30.77
27.50
22.82
16.62
9.23
1.26
-6.57
-13.76
-20.13
-25.93
-31.70
-38.13
-45.84
-55.19
-65.95
-77.25
-87.55
-94.92
-97.51
-94.17
-84.73
-70.19
-52.35
-33.34
-15.05
1.22
14.93
26.04
34.74
41.30
45.85
48.49
49.39
48.82
47.13
44.69
41.73
38.33
34.47
30.13
25.46
20.86
16.84
13.80
11.87
10.69
9.50
7.39
3.65
-1.95
-9.03
-16.79
-24.33
-31.04
-36.80
-42.03
-47.50
-54.03
-62.21
-72.14
-83.26
-94.33
-103.59
-109.12
-109.25
-103.16
-91.13
-74.56
-55.67
-36.77
-19.76
-5.63
5.51
14.15
21.00
26.53
30.79
33.55
34.42
33.22
30.08
25.41
19.84
13.93
8.18
2.91
-1.62
-5.17
-7.58
-8.76
-8.97
-8.73
-8.85
-10.14
-13.10
-17.79
-23.80
-30.39
-36.81
-42.61
-47.73
-52.61
-58.00
-64.70
-73.25
-83.57
-94.79
-105.22
-112.69
-115.08
-110.96
-99.98
-83.04
-61.92
-38.80
-15.66
6.14
25.93
43.64
59.50
73.70
86.29
97.10
105.94
112.69
117.55
120.85
123.06
124.57
125.57
126.11
126.18
125.90
125.58
125.66
126.53
128.30
130.72
133.16
134.87
135.17
133.70
130.49
125.92
120.49
114.62
108.45
101.71
93.80
83.85
70.97
54.54
34.52
11.69
-12.40
-35.69
-56.17
-72.43
-84.06
-91.66
-96.59
-100.31
-103.93
-107.81
-111.69
-115.04
-117.52
-119.24
-120.69
-122.36
-124.44
-126.60
-127.93
-127.35
-123.93
-117.28
-107.57
-95.25
-80.92
-65.08
-48.12
-30.28
-11.82
7.05
26.11
45.21
64.42
83.44
101.22
115.90
125.37
127.93
122.79
110.17
90.89
66.22
37.05
3.87
-32.53
-70.05
-105.09
-133.28
-150.90
-156.09
-148.57
-130.24
-104.68
-76.04
-47.76
-21.94
0.64
20.12
37.33
54.33
72.75
92.85
113.32
132.06
147.00
156.68
160.84
154.06
134.74
106.61
77.02
51.80
32.61
18.17
6.28
-4.15
-13.03
-18.81
-20.48
-18.47
-14.57
-10.61
-7.52
-5.49
-3.38
0.28
7.20
17.44
28.82
37.40
39.34
32.41
15.94
-8.01
-35.65
-61.93
-81.94
-91.71
-89.02
-73.81
-45.48
-11.76
16.64
30.45
25.78
5.28
-23.26
-50.70
-70.24
-79.81
-82.49
-83.09
-85.83
-92.48
-103.44
-115.57
-125.51
-130.83
-130.48
-125.08
-115.52
-102.87
-88.31
-72.94
-57.55
-42.24
-26.72
-10.49
6.56
24.50
43.12
61.92
80.46
94.89
102.42
101.58
92.58
77.10
58.16
39.19
23.10
11.47
4.26
0.35
-2.05
-4.51
-7.62
-10.63
-12.01
-10.28
-4.97
2.87
11.11
16.91
17.74
12.43
1.79
-11.52
-23.89
-31.97
-33.95
-29.92
-22.01
-13.50
-7.74
-7.06
-12.13
-22.03
-34.54
-46.95
-56.65
-61.84
-61.61
-55.50
-43.23
-24.49
0.62
30.88
63.64
95.19
121.91
141.46
153.54
159.57
161.69
161.63
160.11
157.22
153.13
148.71
145.20
143.56
143.72
144.53
144.15
140.87
133.65
122.28
106.97
87.97
65.34
39.33
10.88
-18.10
-45.01
-67.19
-82.96
-92.28
-96.86
-99.41
-102.51
-107.37
-113.97
-121.37
-128.26
-133.36
-135.42
-133.50
-127.18
-116.56
-102.03
-84.93
-67.24
-50.62
-35.65
-21.03
-4.52
16.01
41.65
72.50
106.26
138.85
165.97
184.25
192.78
192.13
183.98
170.74
155.90
141.83
129.53
118.87
108.83
98.87
88.40
77.63
60.57
36.86
11.49
-8.62
-16.41
-16.44
-15.26
-18.61
-31.16
-53.71
-83.68
-117.37
-150.86
-180.35
-198.10
-197.41
-179.89
-154.98
-132.73
-117.48
-107.75
-99.00
-87.30
-72.09
-56.18
-44.44
-40.85
-43.36
-47.43
-49.01
-46.52
-41.32
-36.66
-33.45
-33.07
-34.17
-33.03
-26.47
-14.07
1.51
16.11
26.22
30.56
29.85
26.68
23.97
23.19
24.02
25.14
25.02
22.46
16.64
6.75
-6.71
-21.83
-35.80
-45.12
-46.81
-39.60
-24.85
-5.69
11.93
23.71
28.03
25.62
18.66
9.77
1.14
-5.68
-9.48
-9.29
-3.91
7.13
22.52
38.91
51.67
56.36
50.76
36.45
18.46
3.35
-2.32
3.59
18.54
36.95
53.05
62.89
65.14
60.25
49.63
34.68
16.48
-3.67
-23.89
-41.76
-54.33
-58.83
-54.26
-41.94
-25.42
-9.57
1.52
6.21
6.36
5.56
7.48
13.47
21.61
27.68
27.03
16.82
-2.86
-28.49
-54.93
-76.29
-87.64
-86.48
-73.42
-51.99
-26.71
-3.77
12.89
21.43
21.78
14.76
1.76
-15.04
-32.78
-48.13
-58.68
-62.78
-60.43
-52.83
-41.59
-27.94
-12.40
4.90
23.53
42.52
60.56
75.79
86.24
90.13
86.24
74.42
55.72
32.35
7.37
-15.88
-34.74
-47.76
-54.87
-57.21
-56.72
-55.43
-54.85
-55.28
-55.80
-54.88
-51.11
-43.97
-34.23
-23.67
-14.21
-8.13
-6.21
-7.75
-11.24
-15.13
-18.24
-19.84
-19.51
-17.32
-14.17
-11.95
-13.08
-19.00
-28.59
-37.66
-40.40
-32.35
-13.26
12.04
35.76
50.87
54.50
48.97
39.82
32.37
28.87
28.00
26.54
22.05
14.38
5.50
-1.94
-6.27
-7.75
-8.14
-9.52
-13.12
-18.83
-25.47
-31.66
-36.54
-40.06
-42.64
-44.52
-45.26
-43.68
-38.26
-27.91
-12.54
6.75
27.89
48.51
66.52
80.51
89.91
94.77
95.56
92.95
87.61
80.23
71.45
61.80
51.69
41.40
31.06
20.74
10.62
0.96
-7.88
-15.56
-21.90
-26.99
-31.19
-35.15
-39.71
-45.60
-53.15
-61.91
-70.54
-77.04
-79.22
-75.44
-65.11
-48.97
-28.69
-6.38
16.01
37.01
55.71
71.50
83.90
92.53
97.17
98.01
95.73
91.47
86.48
81.90
78.36
75.93
74.23
72.60
70.41
67.17
62.57
56.43
48.66
39.27
28.27
15.73
1.70
-13.80
-30.56
-47.94
-64.64
-78.71
-87.94
-90.52
-85.66
-73.90
-56.88
-36.76
-15.69
4.61
22.93
38.54
51.07
60.50
67.17
71.77
75.16
77.97
80.28
81.43
80.26
75.56
66.61
53.54
37.42
20.14
3.70
-10.47
-21.92
-31.21
-39.59
-48.58
-59.44
-72.77
-87.77
-102.74
-115.47
-123.69
-125.59
-120.15
-107.55
-89.17
-67.15
-43.03
-18.33
5.42
26.83
45.01
59.90
71.89
81.48
89.19
96.54
104.40
112.38
119.16
123.31
124.25
122.05
117.30
110.91
105.48
102.76
102.82
104.11
104.55
102.73
97.79
89.41
68.32
32.55
-10.75
-49.01
-72.91
-81.09
-77.89
-69.68
-61.71
-56.58
-52.79
-48.24
-42.37
-35.51
-30.48
-28.81
-30.28
-33.48
-36.60
-37.24
-34.49
-29.35
-24.09
-20.80
-19.82
-20.12
-20.01
-18.00
-13.22
-6.36
0.55
4.82
4.19
-2.19
-14.03
-30.34
-49.81
-70.79
-91.01
-107.59
-118.03
-121.21
-117.67
-109.43
-99.25
-89.56
-82.31
-78.00
-75.60
-73.98
-72.83
-72.46
-73.36
-75.79
-79.75
-86.08
-94.94
-104.71
-113.00
-117.45
-116.17
-108.10
-93.27
-66.94
-31.02
6.28
36.31
54.65
62.27
63.52
64.10
68.86
79.94
96.48
113.82
128.08
136.49
138.21
134.47
127.79
120.85
115.53
112.24
107.56
101.57
94.76
87.19
78.67
69.17
59.11
49.17
39.47
29.99
21.43
14.01
7.83
3.52
2.27
4.43
8.69
11.40
9.74
3.70
-7.00
-22.25
-40.30
-58.16
-72.69
-81.38
-82.61
-75.89
-62.46
-46.37
-34.22
-31.49
-39.65
-55.77
-73.62
-85.77
-86.09
-71.97
-40.30
2.05
40.64
63.24
66.65
55.26
35.75
13.50
-8.30
-28.51
-47.38
-64.01
-75.86
-80.94
-79.28
-73.25
-66.36
-61.69
-60.63
-62.95
-67.38
-69.20
-65.10
-54.42
-39.10
-22.39
-7.29
4.39
11.90
15.99
18.51
20.67
22.86
24.56
25.19
24.57
23.10
21.34
20.06
20.18
20.85
21.23
20.36
17.60
13.08
7.75
3.05
0.62
1.68
6.31
13.60
21.73
28.69
32.99
34.04
32.23
28.82
25.54
24.05
25.67
30.91
39.33
49.73
60.52
70.20
77.76
82.83
85.51
86.19
85.21
82.75
78.95
74.07
68.49
62.72
57.25
52.29
47.84
43.60
39.24
34.59
29.72
24.89
20.36
16.13
11.87
6.98
0.87
-6.81
-16.00
-26.19
-36.58
-46.16
-53.88
-58.69
-59.71
-56.41
-48.84
-37.72
-24.32
-10.17
3.46
15.77
26.52
35.80
43.76
50.29
54.99
57.33
56.89
53.55
47.62
39.70
30.64
21.24
12.26
4.27
-2.38
-7.53
-11.22
-13.76
-15.62
-17.31
-19.27
-21.73
-24.64
-27.74
-30.76
-33.55
-36.26
-39.35
-43.51
-49.48
-57.73
-68.20
-80.11
-91.89
-101.54
-107.08
-107.16
-101.46
-90.80
-76.71
-60.93
-44.84
-29.12
-13.91
0.92
15.40
29.23
41.89
52.77
61.44
67.78
71.98
74.44
75.60
75.79
75.23
74.04
72.39
70.57
68.97
67.93
67.60
67.79
68.00
67.60
66.02
62.99
58.62
53.20
47.13
40.74
34.23
27.71
21.18
14.51
7.51
-0.07
-8.37
-17.36
-26.73
-36.00
-44.68
-52.46
-59.35
-65.61
-71.71
-78.11
-85.18
-93.16
-102.01
-111.31
-120.21
-127.36
-131.27
-130.70
-125.13
-114.99
-101.52
-86.40
-71.19
-56.85
-43.69
-31.46
-19.74
-8.30
2.75
13.06
22.15
29.70
35.54
39.76
42.55
44.11
44.63
44.33
43.47
42.38
41.40
40.69
40.30
40.03
39.66
38.92
37.71
35.95
33.67
30.89
27.63
23.92
19.79
15.31
10.58
5.80
1.19
-3.02
-6.65
-9.74
-12.53
-15.47
-19.06
-23.68
-29.44
-36.20
-43.67
-51.62
-59.88
-68.29
-76.52
-83.85
-89.25
-91.58
-89.95
-83.99
-74.09
-61.24
-46.76
-31.99
-17.94
-5.12
6.37
16.70
26.06
34.45
41.63
47.28
51.19
53.37
54.18
54.08
53.45
52.50
51.23
49.56
47.53
45.32
43.20
41.37
39.82
38.29
36.39
33.87
30.66
26.97
23.06
19.07
14.96
10.47
5.33
-0.56
-7.03
-13.77
-20.39
-26.63
-32.40
-37.79
-43.07
-48.65
-55.04
-62.65
-71.49
-80.96
-89.73
-96.15
-98.71
-96.63
-90.10
-80.13
-68.15
-55.46
-43.00
-31.19
-20.16
-9.83
-0.14
8.97
17.48
25.30
32.26
38.10
42.62
45.74
47.52
48.19
48.02
47.33
46.40
45.50
44.81
44.36
44.01
43.46
42.38
40.49
37.76
34.43
30.84
27.35
24.08
20.91
17.52
13.56
8.80
3.23
-2.93
-9.36
-15.76
-21.89
-27.76
-33.49
-39.38
-45.77
-52.88
-60.64
-68.50
-75.42
-80.06
-81.18
-78.09
-70.83
-60.24
-47.55
-34.06
-20.69
-7.93
4.09
15.40
26.03
35.84
44.60
52.04
57.92
62.10
64.57
65.44
64.93
63.34
61.01
58.31
55.61
53.24
51.34
49.87
48.52
46.85
44.41
41.00
36.69
31.90
27.15
22.92
19.41
16.47
13.62
10.24
5.78
-0.02
-7.01
-14.65
-22.27
-29.28
-35.47
-41.08
-46.67
-52.93
-60.38
-69.15
-78.82
-88.47
-96.76
-102.27
-103.82
-100.82
-93.42
-82.49
-69.32
-55.28
-41.47
-28.56
-16.81
-6.29
3.03
11.12
17.91
23.38
27.56
30.54
32.48
33.51
33.75
33.17
31.70
29.31
26.17
22.77
19.91
18.53
19.32
22.49
27.52
33.36
38.73
42.54
44.29
44.05
42.33
39.65
36.38
32.53
28.02
22.77
16.91
10.78
4.75
-0.98
-6.48
-12.05
-18.12
-25.03
-32.94
-41.81
-51.42
-61.38
-71.02
-79.43
-85.50
-88.13
-86.58
-80.73
-71.15
-58.97
-45.56
-32.14
-19.50
-7.91
2.76
12.80
22.36
31.37
39.48
46.29
51.51
55.16
57.55
59.10
60.15
60.86
61.23
61.25
61.03
60.81
60.80
61.05
61.33
61.17
60.11
57.87
54.48
50.22
45.49
40.56
35.50
30.12
24.09
17.12
9.13
0.30
-8.92
-18.00
-26.51
-34.29
-41.49
-48.57
-56.11
-64.60
-74.25
-84.73
-95.11
-103.92
-109.41
-109.93
-104.39
-92.64
-75.51
-54.70
-32.26
-10.26
9.69
26.57
40.03
50.28
57.90
63.66
68.26
72.21
75.72
78.76
81.19
82.90
83.91
84.40
84.68
85.03
85.65
86.55
87.53
88.23
88.12
86.62
83.23
77.66
69.92
60.32
49.41
37.89
26.39
15.39
5.10
-4.54
-13.76
-22.86
-32.04
-41.35
-50.79
-60.38
-70.28
-80.70
-91.62
-102.50
-112.07
-118.51
-119.98
-115.26
-104.29
-88.24
-69.17
-49.35
-30.70
-14.39
-0.78
10.35
19.61
27.65
35.08
42.26
49.26
55.85
61.68
66.49
70.25
73.33
76.33
79.90
84.50
90.16
96.49
102.62
107.43
109.69
108.44
103.16
94.10
82.26
69.17
56.41
45.16
35.82
28.10
21.29
14.69
7.82
0.44
-7.68
-16.81
-27.18
-38.58
-50.07
-59.97
-66.34
-67.67
-63.50
-54.67
-42.92
-30.34
-18.76
-9.42
-2.79
1.21
3.12
3.64
3.39
2.76
1.79
0.29
-1.96
-4.99
-8.51
-12.01
-14.96
-16.92
-17.58
-16.71
-14.01
-9.20
-2.34
6.02
14.52
21.20
23.86
20.69
10.83
-5.38
-26.38
-49.84
-73.11
-93.79
-110.05
-121.02
-126.69
-127.99
-126.48
-124.10
-122.73
-123.75
-127.65
-133.80
-140.46
-145.12
-145.13
-138.46
-124.30
-103.33
-77.55
-49.62
-22.19
2.62
23.39
39.37
50.28
56.29
58.05
56.63
53.25
49.00
44.42
39.37
33.22
25.26
15.15
3.13
-10.04
-23.51
-36.66
-49.29
-61.57
-73.72
-85.61
-96.67
-105.94
-112.45
-115.71
-116.00
-114.24
-111.67
-109.18
-106.97
-104.53
-101.18
-96.57
-90.98
-85.15
-79.62
-74.16
-67.58
-58.17
-44.64
-26.87
-6.19
15.21
35.27
52.84
67.97
81.45
94.05
105.92
116.49
124.90
130.49
133.19
133.45
131.95
129.18
125.28
120.16
113.84
106.67
99.35
92.63
87.01
82.47
78.44
74.05
68.44
61.08
51.94
41.40
30.13
18.83
8.04
-2.01
-11.51
-21.05
-31.47
-43.55
-57.61
-73.21
-88.98
-102.85
-112.48
-115.90
-112.02
-100.95
-84.00
-63.25
-41.13
-19.81
-0.84
15.08
27.98
38.34
46.74
53.59
59.05
63.12
65.82
67.23
67.61
67.18
66.07
64.34
62.04
59.28
56.39
53.65
51.20
48.74
45.64
41.14
34.75
26.52
17.10
7.47
-1.52
-9.45
-16.53
-23.41
-30.93
-39.68
-49.75
-60.42
-70.20
-77.02
-78.73
-73.88
-62.37
-45.61
-26.25
-7.22
9.22
22.16
32.04
40.10
47.64
55.44
63.62
71.92
79.95
87.49
94.44
100.56
105.47
108.55
109.20
107.13
102.53
96.08
88.72
81.40
74.76
68.98
63.82
58.85
53.58
47.74
41.29
34.33
26.97
19.13
10.54
0.78
-10.42
-22.96
-36.11
-48.46
-58.11
-63.12
-62.09
-54.51
-41.09
-23.60
-4.40
14.21
30.51
43.81
54.28
62.64
69.66
75.83
81.18
85.53
88.67
90.62
91.64
92.03
92.00
91.45
90.09
87.49
83.34
77.52
70.13
61.49
52.10
42.62
33.68
25.79
19.13
13.49
8.43
3.45
-1.71
-7.03
-12.25
-17.07
-21.36
-25.33
-29.40
-34.18
-40.29
-48.19
-57.96
-69.06
-80.28
-89.73
-95.36
-95.51
-89.50
-77.89
-62.29
-44.83
-27.43
-11.30
3.12
15.84
26.91
36.04
42.61
45.88
45.37
41.11
33.70
24.23
13.98
4.25
-3.89
-9.69
-12.71
-12.88
-10.45
-6.00
-0.36
5.43
10.18
12.75
12.08
7.35
-1.95
-15.92
-34.10
-55.39
-77.91
-99.22
-116.71
-128.26
-132.82
-130.79
-123.88
-114.66
-105.92
-100.01
-98.36
-101.30
-107.91
-116.27
-123.76
-127.75
-126.24
-118.54
-105.35
-88.58
-70.68
-53.73
-38.92
-26.29
-14.99
-3.85
7.99
20.66
33.53
45.47
55.35
62.42
66.43
67.57
66.20
62.75
57.82
52.28
47.27
43.97
43.10
44.56
47.32
49.80
50.48
48.50
43.92
37.53
30.39
23.33
16.67
10.27
3.74
-3.16
-10.30
-17.21
-23.28
-28.09
-31.67
-34.53
-37.45
-41.23
-46.42
-53.24
-61.72
-71.71
-82.70
-93.63
-102.80
-108.04
-107.40
-99.81
-85.60
-66.46
-44.86
-23.25
-3.45
13.63
27.87
39.61
49.32
57.47
64.37
70.12
74.63
77.71
79.25
79.40
78.52
77.13
75.62
74.13
72.57
70.83
68.88
66.86
64.89
62.90
60.55
57.36
53.03
47.66
41.66
35.63
29.93
24.62
19.43
14.02
8.20
1.98
-4.42
-10.80
-17.07
-23.26
-29.37
-35.35
-41.17
-47.00
-53.47
-61.52
-72.04
-85.12
-99.50
-112.45
-120.35
-119.81
-108.93
-88.05
-59.75
-28.04
2.77
29.19
49.16
62.11
68.65
70.05
67.70
62.77
55.99
47.71
38.06
27.19
15.48
3.67
-7.21
-15.96
-21.54
-23.27
-21.06
-15.44
-7.43
1.69
10.59
18.06
23.20
25.41
24.50
20.73
14.82
7.84
0.90
-5.17
-10.14
-14.32
-18.31
-22.63
-27.48
-32.65
-37.85
-42.96
-48.22
-54.10
-60.96
-68.62
-76.12
-81.89
-84.20
-81.75
-74.14
-61.98
-46.68
-29.97
-13.43
1.90
15.61
27.68
38.24
47.18
54.16
58.77
60.90
60.86
59.45
57.65
56.16
55.19
54.39
53.19
51.14
48.25
44.89
41.58
38.74
36.49
34.73
33.14
31.34
28.89
25.35
20.37
13.89
6.21
-2.09
-10.34
-18.07
-25.21
-32.06
-39.06
-46.61
-54.92
-64.02
-73.78
-83.77
-93.12
-100.37
-103.69
-101.42
-92.78
-78.30
-59.83
-39.94
-21.06
-4.75
8.53
19.14
27.76
34.93
40.88
45.66
49.32
52.04
54.12
55.74
56.94
57.50
57.19
55.85
53.57
50.63
47.48
44.49
41.94
39.87
38.15
36.48
34.45
31.65
27.67
22.32
15.61
7.88
-0.28
-8.23
-15.41
-21.61
-26.99
-32.04
-37.46
-43.98
-52.07
-61.76
-72.41
-82.72
-90.86
-94.88
-93.32
-85.70
-72.70
-55.98
-37.58
-19.39
-2.64
12.11
24.78
35.53
44.53
51.91
57.81
62.37
65.71
67.83
68.71
68.30
66.69
64.10
60.89
57.38
53.90
50.65
47.75
45.23
42.96
40.68
37.99
34.53
30.07
24.63
18.42
11.66
4.49
-2.98
-10.66
-18.36
-25.84
-32.96
-39.76
-46.61
-54.08
-62.67
-72.50
-82.99
-92.80
-100.07
-102.90
-99.97
-91.05
-77.10
-59.99
-41.89
-24.62
-9.17
4.32
16.27
27.21
37.37
46.49
53.99
59.25
61.93
62.16
60.49
57.72
54.63
51.72
49.24
47.19
45.55
44.20
43.00
41.62
39.60
36.47
31.98
26.14
19.37
12.18
5.00
-2.01
-9.00
-16.27
-23.96
-31.97
-39.79
-46.56
-51.40
-53.96
-54.83
-55.64
-58.59
-65.28
-75.97
-88.89
-100.50
-106.56
-104.06
-92.19
-72.80
-49.62
-26.70
-7.80
4.93
11.52
14.31
16.55
21.62
31.23
44.45
58.22
67.26
66.81
55.08
34.77
11.76
-6.29
-13.05
-5.74
14.66
42.14
67.96
83.44
83.31
66.70
38.98
10.02
-14.17
-23.77
-14.45
10.93
41.50
69.93
88.98
97.35
97.50
92.83
85.89
75.58
58.95
33.91
1.83
-33.17
-64.88
-88.00
-100.02
-101.13
-94.42
-83.60
-71.40
-58.72
-45.89
-32.74
-19.63
-7.42
3.16
11.06
15.70
17.38
17.57
18.21
21.38
28.20
38.52
51.19
64.38
76.27
85.32
90.18
89.31
81.44
66.35
45.58
22.63
1.81
-13.23
-20.78
-21.34
-17.22
-11.43
-6.69
-4.96
-7.29
-13.86
-24.18
-37.49
-52.88
-69.81
-87.94
-106.28
-122.26
-131.74
-130.16
-114.59
-85.87
-48.52
-9.72
23.24
45.62
56.62
58.91
56.51
52.86
49.20
45.43
40.67
34.24
26.50
18.91
13.48
11.31
12.30
14.56
16.48
17.36
17.87
20.04
26.08
37.31
53.14
71.78
84.24
83.16
67.30
42.65
18.02
-0.55
-8.62
-8.73
-4.02
2.19
7.78
11.58
10.84
4.68
-6.35
-20.29
-34.33
-44.93
-49.53
-46.40
-35.13
-17.13
4.90
27.04
42.06
43.25
29.39
5.51
-20.38
-41.85
-56.35
-64.93
-70.56
-75.45
-80.41
-84.89
-88.49
-91.52
-93.73
-95.35
-95.89
-93.97
-87.31
-73.43
-50.90
-20.77
13.24
46.08
73.10
91.89
102.74
108.15
111.55
115.88
122.46
130.78
138.68
142.71
138.73
122.93
93.49
51.94
3.72
-42.91
-79.46
-100.06
-103.61
-93.57
-76.02
-56.67
-39.05
-24.12
-11.24
0.47
11.01
19.48
24.86
25.51
21.35
13.88
5.48
-1.56
-6.09
-7.99
-8.02
-7.23
-6.55
-6.37
-7.23
-9.94
-15.00
-21.77
-28.37
-31.47
-27.35
-13.64
9.57
38.59
67.88
91.50
105.78
111.28
110.45
104.72
92.65
71.72
40.70
0.83
-41.58
-77.64
-100.19
-106.80
-99.91
-85.54
-70.32
-60.36
-59.20
-66.85
-80.71
-97.36
-114.00
-124.02
-123.40
-103.65
-64.95
-16.78
27.95
60.23
77.59
82.00
76.89
64.57
46.80
24.60
-0.01
-23.26
-41.22
-51.61
-54.55
-51.88
-46.49
-42.31
-40.56
-41.43
-43.62
-45.15
-44.45
-40.98
-35.09
-27.96
-20.74
-14.68
-10.68
-8.68
-8.06
-8.17
-8.60
-9.01
-9.12
-7.83
-4.35
1.66
10.19
20.67
32.09
43.44
54.26
64.78
75.72
87.59
100.05
112.04
122.05
128.66
131.04
129.17
123.64
115.27
104.76
92.65
79.49
66.01
53.04
41.36
31.42
23.13
15.98
9.26
2.31
-5.20
-13.35
-21.95
-30.71
-39.29
-47.36
-54.58
-60.72
-65.68
-69.49
-72.44
-74.98
-77.68
-81.05
-85.29
-90.05
-94.38
-96.95
-96.39
-91.79
-83.01
-70.65
-55.85
-39.92
-24.02
-9.09
4.28
15.71
25.09
32.46
38.02
42.06
44.92
47.02
48.80
50.66
52.70
54.62
55.76
55.32
52.80
48.23
42.25
35.87
29.96
25.01
20.91
17.17
13.15
8.46
2.97
-3.08
-9.31
-15.36
-21.06
-26.53
-32.12
-38.30
-45.44
-53.64
-62.54
-71.29
-78.62
-83.23
-83.96
-80.25
-72.29
-60.95
-47.64
-33.91
-21.12
-10.20
-1.48
5.22
10.52
15.06
19.37
23.53
27.26
30.01
31.23
30.57
27.99
23.70
18.08
11.63
4.91
-1.41
-6.73
-10.62
-13.04
-14.51
-15.81
-17.72
-20.51
-23.79
-26.57
-27.77
-26.74
-23.63
-19.40
-15.47
-13.20
-13.50
-16.61
-22.15
-29.10
-36.02
-41.22
-43.01
-40.15
-32.21
-19.77
-4.32
12.16
27.84
41.43
52.35
60.62
66.43
69.96
71.15
69.93
66.31
60.55
53.11
44.60
35.51
26.22
16.94
7.90
-0.53
-7.87
-13.54
-17.12
-18.52
-18.13
-16.62
-14.77
-13.20
-12.17
-11.67
-11.47
-11.33
-11.04
-10.44
-9.44
-7.98
-6.19
-4.27
-2.47
-0.84
1.00
3.75
8.25
14.95
23.60
33.17
42.26
49.66
54.91
58.43
61.35
64.85
69.59
75.35
81.15
85.66
87.74
86.82
82.92
76.42
67.77
57.27
45.11
31.61
17.37
3.29
-9.64
-20.68
-29.64
-36.89
-43.10
-48.98
-54.92
-60.94
-66.80
-72.18
-76.89
-80.94
-84.50
-87.92
-91.65
-96.19
-102.01
-109.26
-117.50
-125.60
-131.81
-134.22
-131.30
-122.43
-108.08
-89.73
-69.46
-49.52
-31.84
-17.68
-7.53
-1.12
2.54
4.94
7.73
12.18
18.74
26.89
35.42
42.82
47.70
49.26
47.45
42.88
36.60
29.69
22.98
17.14
12.24
7.77
2.90
-3.00
-9.96
-17.26
-23.83
-28.70
-30.78
-29.85
-26.73
-22.94
-20.02
-19.08
-20.59
-24.38
-29.48
-32.81
-31.15
-22.53
-6.99
13.77
37.24
60.90
82.96
102.62
122.03
142.91
164.92
185.52
201.60
211.18
213.92
210.72
203.16
195.51
191.08
190.65
192.98
196.78
202.18
210.34
222.18
220.07
192.65
140.03
73.41
5.74
-54.76
-104.53
-142.72
-169.97
-187.96
-196.62
-196.56
-190.16
-181.74
-175.84
-175.51
-181.70
-193.49
-208.65
-222.21
-227.68
-221.50
-203.59
-176.45
-143.98
-110.69
-80.76
-56.94
-38.36
-22.02
-4.97
14.50
36.44
59.65
82.39
103.07
120.82
136.10
149.45
160.10
166.15
165.58
157.85
144.11
126.52
107.24
87.98
69.63
52.05
34.70
16.99
-0.91
-18.81
-36.97
-55.79
-74.69
-91.64
-104.15
-110.71
-111.86
-109.18
-105.21
-102.97
-104.69
-110.48
-118.15
-124.42
-126.33
-121.90
-108.53
-84.05
-48.04
-2.38
49.39
102.75
152.80
194.94
216.59
209.68
177.90
135.47
96.29
66.73
46.19
31.47
19.89
10.46
4.88
4.65
8.81
13.64
15.89
12.75
3.81
-9.31
-23.68
-35.22
-41.08
-41.00
-37.37
-32.85
-29.34
-27.50
-27.30
-28.84
-31.73
-36.84
-45.69
-59.29
-75.75
-91.06
-100.74
-101.67
-92.93
-75.58
-51.85
-23.86
6.67
39.45
73.51
106.27
133.92
153.09
161.81
159.97
149.33
127.05
95.88
63.39
37.36
21.44
15.40
16.68
20.61
24.85
27.41
27.32
23.33
13.83
-2.69
-25.00
-51.28
-79.72
-109.05
-138.70
-166.90
-191.03
-207.92
-214.62
-209.51
-193.63
-170.48
-144.44
-119.39
-96.79
-76.49
-57.89
-40.98
-26.34
-14.84
-6.55
-0.06
6.90
16.74
30.49
47.22
64.65
80.29
92.51
100.95
106.27
109.39
110.92
110.82
108.62
104.04
97.42
89.88
82.83
77.41
73.89
71.54
68.96
64.67
57.70
47.93
35.95
22.86
9.90
-1.78
-11.36
-18.41
-23.01
-25.71
-27.44
-29.28
-32.13
-36.43
-41.93
-47.66
-52.12
-53.67
-51.12
-44.14
-33.55
-21.07
-8.68
2.02
10.31
16.38
20.95
24.74
28.20
31.45
34.45
37.24
39.87
42.47
44.98
47.28
49.21
50.68
51.76
52.66
53.65
55.02
56.89
59.13
61.30
62.59
62.18
59.41
54.12
46.63
37.50
27.33
16.49
5.17
-6.50
-18.23
-29.61
-40.05
-48.94
-55.59
-59.26
-59.24
-55.10
-47.01
-35.84
-23.04
-10.16
1.54
11.39
19.12
24.61
27.60
27.65
24.37
17.65
7.82
-4.19
-17.12
-29.67
-40.90
-50.32
-57.96
-64.17
-69.37
-73.92
-78.02
-81.86
-85.79
-90.39
-96.04
-102.56
-108.98
-113.92
-116.27
-115.74
-113.07
-109.73
-107.33
-106.91
-108.66
-112.25
-117.06
-122.59
-127.96
-131.85
-133.07
-131.29
-127.23
-122.20
-117.47
-113.13
-107.91
-98.86
-82.70
-57.96
-26.42
7.97
40.73
68.21
88.41
100.35
104.89
104.10
99.97
93.15
83.84
72.41
59.13
44.18
26.99
8.27
-9.66
-24.16
-33.87
-37.94
-35.51
-26.34
-6.05
21.84
47.42
62.41
68.71
70.27
69.82
70.88
76.17
86.22
97.99
107.59
112.44
112.10
107.64
101.86
98.10
97.91
100.25
101.86
100.44
96.00
89.95
83.11
75.65
67.48
58.16
47.24
34.33
20.31
7.13
-3.19
-9.74
-12.33
-10.97
-6.39
-0.37
4.74
7.52
7.82
5.90
1.22
-7.21
-19.35
-33.48
-46.32
-53.67
-51.52
-37.87
-14.07
14.62
38.13
48.20
44.73
33.86
22.10
12.93
6.55
1.46
-4.01
-10.29
-15.85
-18.49
-17.14
-12.51
-6.56
-1.50
1.08
0.23
-4.34
-12.14
-22.68
-35.82
-51.25
-67.63
-83.30
-95.43
-101.80
-101.44
-94.24
-80.55
-60.88
-36.03
-7.21
23.34
52.49
76.16
90.57
93.77
86.44
71.66
53.88
37.46
25.29
18.12
13.84
8.29
-2.69
-20.97
-45.22
-70.84
-91.80
-102.84
-100.96
-86.63
-63.56
-37.09
-12.50
5.64
13.73
9.62
-7.47
-32.26
-52.85
-56.90
-39.08
-3.31
40.03
79.42
106.86
120.34
123.40
121.80
119.74
118.05
114.83
107.15
93.14
73.27
50.01
26.96
7.21
-7.82
-18.16
-24.25
-26.43
-25.00
-20.09
-12.73
-4.89
1.40
4.91
6.12
7.53
12.00
21.22
33.75
44.51
46.62
35.41
10.72
-22.72
-57.22
-86.10
-105.88
-117.41
-124.41
-130.52
-135.79
-137.14
-131.23
-112.66
-82.46
-45.67
-9.32
22.30
42.85
49.51
45.50
37.59
31.48
28.78
28.10
26.79
22.82
15.32
5.46
-4.87
-14.32
-22.20
-28.24
-31.85
-32.47
-30.31
-27.28
-25.65
-27.27
-32.57
-39.95
-46.39
-48.92
-45.93
-37.77
-26.55
-14.32
-2.08
10.36
23.86
39.43
56.46
73.07
86.89
96.18
100.96
102.87
104.07
102.09
97.24
88.45
73.73
52.36
26.10
-0.83
-23.71
-39.65
-48.81
-53.28
-56.36
-59.66
-61.75
-59.41
-48.81
-28.47
-0.33
30.76
59.02
78.61
85.22
77.05
54.88
21.81
-17.35
-56.77
-90.37
-112.57
-120.19
-112.78
-92.61
-63.85
-31.38
0.56
28.18
48.29
59.75
63.24
60.88
55.51
49.67
45.06
42.00
39.64
36.63
31.91
25.00
16.27
6.69
-2.52
-10.45
-16.75
-21.71
-25.78
-29.28
-32.33
-34.91
-36.99
-38.69
-40.29
-42.32
-45.40
-50.09
-56.63
-64.95
-74.48
-84.11
-92.21
-96.85
-96.29
-89.48
-76.47
-58.54
-37.90
-17.05
1.96
18.01
30.99
41.46
50.03
57.00
62.22
65.33
66.11
64.71
61.58
57.36
52.59
47.60
42.58
37.72
33.30
29.70
27.24
26.02
25.69
25.45
24.37
21.74
17.50
12.30
7.25
3.34
0.88
-0.63
-2.17
-4.49
-7.39
-9.55
-8.89
-3.56
7.17
22.42
40.04
57.47
72.74
85.03
94.51
101.75
107.01
109.93
109.83
106.19
99.22
89.78
79.10
68.22
57.73
47.85
38.65
30.28
22.95
16.80
11.70
7.26
3.03
-1.34
-5.98
-10.92
-16.23
-22.12
-28.87
-36.77
-45.91
-56.08
-66.72
-76.89
-85.28
-90.32
-90.46
-84.58
-72.49
-55.18
-34.70
-13.77
5.10
20.28
31.47
39.53
45.88
51.75
57.56
62.85
66.56
67.73
65.91
61.34
54.79
47.14
39.10
31.09
23.39
16.36
10.42
6.02
3.30
1.88
0.91
-0.75
-4.13
-9.76
-17.61
-27.18
-37.89
-49.34
-61.37
-73.79
-86.09
-97.17
-105.50
-109.49
-108.05
-100.97
-88.90
-73.08
-55.07
-36.39
-18.40
-2.12
11.78
23.10
32.00
38.85
43.96
47.42
49.14
48.96
46.96
43.54
39.26
34.72
30.30
26.15
22.25
18.47
14.67
10.61
5.98
0.50
-6.01
-13.46
-21.54
-29.84
-38.05
-46.15
-54.31
-62.90
-72.26
-82.54
-93.55
-104.58
-114.46
-121.60
-124.32
-121.38
-112.33
-97.79
-79.33
-58.99
-38.72
-19.96
-3.41
10.73
22.52
32.02
39.23
44.22
47.17
48.46
48.58
47.97
46.87
45.32
43.24
40.57
37.41
34.01
30.67
27.55
24.54
21.27
17.19
11.88
5.21
-2.57
-10.90
-19.12
-26.67
-33.21
-38.67
-43.31
-47.62
-52.16
-57.29
-62.85
-68.02
-71.41
-71.42
-66.78
-57.06
-42.78
-25.31
-6.42
12.21
29.26
43.93
55.84
64.93
71.34
75.32
77.20
77.43
76.52
75.01
73.31
71.60
69.79
67.60
64.79
61.34
57.48
53.54
49.71
45.84
41.45
35.92
28.88
20.40
11.07
1.79
-6.66
-13.95
-20.34
-26.56
-33.52
-41.84
-51.61
-62.23
-72.49
-80.73
-85.30
-84.85
-78.79
-67.36
-51.74
-33.72
-15.26
1.89
16.58
28.26
36.97
43.04
46.95
49.20
50.32
50.83
51.18
51.69
52.44
53.22
53.72
53.78
53.41
52.72
51.79
50.56
48.87
46.47
43.08
38.60
33.16
27.09
20.79
14.54
8.48
2.58
-3.40
-10.28
-18.91
-29.74
-42.51
-56.11
-68.76
-78.42
-83.28
-82.39
-76.82
-68.51
-59.44
-50.93
-43.56
-37.37
-32.14
-27.72
-24.22
-23.89
-28.57
-38.52
-51.96
-66.00
-77.87
-85.70
-88.87
-87.84
-86.84
-89.60
-97.66
-109.96
-124.49
-139.77
-155.00
-169.54
-181.85
-193.77
-206.00
-217.36
-225.15
-227.85
-226.63
-224.86
-226.32
-211.41
-169.88
-105.10
-33.10
30.41
78.51
112.76
139.87
167.74
202.87
241.72
278.34
305.52
319.27
319.82
310.54
295.82
271.96
241.29
203.40
158.68
110.13
63.87
25.95
-0.83
-17.45
-26.96
-31.06
-32.76
-33.21
-32.66
-30.92
-28.69
-27.69
-30.35
-36.77
-45.13
-54.89
-65.21
-75.06
-82.28
-84.13
-78.28
-63.18
-39.69
-10.62
18.18
40.93
53.96
58.22
58.43
60.42
69.20
83.01
98.48
109.86
117.03
120.11
121.67
125.13
128.77
131.20
130.18
124.02
111.26
92.79
71.74
53.14
41.09
36.16
35.77
34.23
25.56
4.42
-30.19
-74.08
-119.01
-156.65
-182.37
-194.82
-195.74
-187.71
-175.85
-165.47
-160.96
-164.20
-173.90
-185.64
-190.17
-176.60
-130.13
-50.80
40.19
110.79
145.11
151.76
148.50
153.67
174.34
211.64
257.43
299.74
328.64
330.02
298.77
240.86
171.81
107.12
56.39
21.19
-1.02
-16.00
-28.76
-42.10
-58.58
-78.79
-100.69
-119.19
-129.67
-124.81
-101.88
-63.56
-17.69
23.33
46.62
43.04
11.12
-42.53
-104.38
-158.55
-191.01
-193.67
-167.35
-120.74
-67.02
-19.21
13.25
26.18
20.14
-0.21
-27.82
-55.58
-77.78
-91.13
-94.77
-90.04
-79.79
-67.88
-57.90
-52.01
-50.56
-52.06
-54.00
-53.84
-50.17
-43.20
-34.77
-27.34
-23.07
-23.21
-27.97
-36.57
-47.60
-59.12
-68.88
-74.74
-74.98
-68.85
-56.75
-40.12
-20.99
-1.27
17.75
35.49
52.01
67.47
81.88
94.89
105.97
114.68
120.99
125.42
128.77
131.73
134.50
136.68
137.43
135.83
131.33
123.90
114.02
102.37
89.72
76.69
63.85
51.66
40.44
30.25
20.68
10.94
0.04
-12.71
-27.18
-42.10
-55.18
-63.74
-65.65
-60.08
-47.83
-31.05
-12.41
5.80
22.20
36.43
48.73
59.45
68.68
76.15
81.38
83.97
83.79
81.02
76.13
69.70
62.33
54.46
46.44
38.52
30.95
24.08
18.20
13.48
9.71
6.28
2.28
-3.16
-10.50
-19.62
-29.96
-40.86
-51.85
-62.89
-74.04
-85.14
-95.26
-102.76
-105.69
-102.50
-92.64
-76.65
-56.10
-33.01
-9.47
12.71
32.20
48.13
60.01
67.80
71.86
72.74
71.04
67.18
61.48
54.22
45.56
35.32
23.45
10.46
-2.36
-12.96
-19.68
-21.82
-20.18
-17.09
-16.15
-20.05
-29.38
-42.47
-56.07
-67.91
-77.20
-84.57
-91.59
-100.45
-111.73
-123.86
-133.68
-137.37
-133.39
-122.37
-106.63
-89.74
-76.22
-68.80
-67.38
-69.41
-70.77
-69.31
-65.07
-59.88
-49.16
-31.98
-11.33
6.76
11.87
5.64
-7.51
-23.19
-34.04
-35.00
-24.79
-5.16
19.11
41.47
56.41
60.46
53.67
39.09
20.17
-1.82
-26.44
-53.43
-81.31
-106.31
-123.29
-127.50
-116.49
-91.73
-58.69
-23.51
8.84
36.14
55.44
66.32
72.12
77.59
87.96
101.00
113.00
121.75
127.95
130.51
131.34
132.36
133.96
134.74
131.99
123.95
110.04
90.76
67.47
42.87
19.49
-0.93
-17.54
-30.57
-40.31
-47.43
-52.85
-57.70
-62.18
-66.45
-70.94
-76.27
-83.00
-90.58
-97.37
-100.91
-98.77
-88.92
-71.09
-46.91
-19.44
7.85
32.35
52.82
69.39
83.24
96.30
110.36
126.50
144.68
163.65
181.14
194.37
200.79
198.92
188.78
171.99
151.48
131.18
115.27
107.11
107.90
115.68
125.38
130.19
123.96
103.60
70.16
28.16
-16.49
-58.75
-95.43
-124.97
-146.64
-159.94
-164.59
-161.10
-151.09
-137.13
-122.28
-108.97
-98.62
-91.84
-88.88
-89.78
-93.95
-99.86
-105.06
-107.18
-104.30
-95.67
-82.19
-66.17
-50.43
-37.11
-27.05
-19.91
-15.27
-12.69
-11.86
-12.61
-14.61
-17.04
-18.51
-17.75
-11.57
-0.26
12.65
22.89
28.85
31.78
33.84
35.97
37.31
36.06
30.95
23.49
17.32
17.07
25.31
41.12
60.13
76.15
83.45
77.63
58.96
32.85
6.73
-13.72
-26.42
-32.47
-34.54
-34.94
-34.97
-34.71
-33.91
-32.76
-32.05
-32.67
-36.18
-41.85
-48.26
-53.99
-57.92
-59.56
-59.17
-57.44
-54.97
-49.69
-41.88
-31.77
-19.49
-5.37
9.56
23.45
34.01
39.43
39.36
35.05
29.20
24.91
24.22
27.34
32.54
36.79
36.96
30.67
17.38
-0.62
-18.43
-29.75
-28.74
-12.33
17.89
55.42
90.17
111.74
113.04
92.83
56.09
12.19
-28.57
-58.46
-74.26
-77.23
-71.31
-60.84
-48.91
-36.89
-24.95
-13.09
-1.95
7.59
14.04
16.71
15.98
12.95
8.91
4.79
0.96
-2.63
-6.00
-8.82
-10.19
-9.08
-5.12
0.81
6.58
9.52
7.54
0.56
-9.38
-18.67
-24.01
-23.93
-19.26
-12.43
-5.94
-1.15
1.93
3.83
4.64
3.36
-1.58
-10.99
-23.75
-36.51
-44.65
-43.87
-32.03
-9.73
18.70
46.33
65.04
67.39
48.91
9.94
-43.45
-100.35
-147.14
-172.05
-169.12
-140.21
-94.06
-42.74
2.46
34.51
51.88
58.60
60.28
60.79
60.70
58.39
52.50
43.56
34.22
27.96
28.72
37.09
49.06
57.75
57.35
46.59
29.20
12.00
1.84
5.32
25.12
58.95
100.84
144.41
185.20
221.00
250.87
260.19
239.10
189.50
124.81
59.90
3.76
-40.34
-72.07
-92.40
-103.22
-105.09
-99.47
-89.59
-79.71
-73.01
-70.53
-71.65
-75.12
-79.56
-81.75
-78.60
-68.69
-52.88
-33.54
-13.81
3.25
15.31
21.23
22.51
21.50
20.58
19.71
18.53
16.71
14.14
10.80
6.59
1.73
-3.84
-10.71
-19.39
-29.63
-40.19
-48.83
-52.99
-50.71
-41.27
-25.18
-6.50
10.05
21.02
25.26
24.10
20.53
17.80
17.98
20.73
23.16
21.29
11.84
-6.06
-30.01
-54.97
-75.75
-88.12
-90.48
-83.98
-71.30
-55.33
-38.37
-21.87
-6.88
5.55
14.51
19.40
20.36
18.47
15.27
12.16
10.07
9.20
9.15
9.30
8.95
7.71
5.63
3.14
0.77
-0.94
-1.76
-1.79
-1.45
-1.57
-2.95
-6.16
-11.39
-18.20
-25.23
-30.36
-31.38
-26.72
-16.29
-1.32
16.03
33.32
48.37
59.92
67.75
72.37
74.62
75.08
74.23
72.21
68.68
62.67
53.12
39.63
22.71
4.14
-13.62
-27.61
-34.58
-31.92
-21.05
-8.01
-0.29
-3.14
-17.34
-39.94
-65.16
-86.70
-100.02
-103.73
-99.38
-89.91
-79.92
-70.04
-60.30
-50.40
-40.31
-30.59
-22.11
-15.80
-12.40
-12.88
-18.54
-31.17
-51.44
-77.69
-105.53
-127.90
-137.81
-131.49
-110.50
-80.93
-51.03
-27.30
-12.17
-4.31
-0.83
0.24
-1.11
-6.04
-15.02
-26.75
-38.04
-45.02
-44.81
-36.76
-22.61
-5.33
12.25
28.54
43.39
57.48
71.50
85.31
97.81
107.29
112.37
112.61
108.78
102.46
95.39
88.82
83.09
77.80
72.11
65.51
58.01
50.08
42.32
35.04
28.11
20.91
12.62
2.57
-9.21
-21.98
-34.42
-44.82
-51.35
-52.53
-47.62
-37.01
-22.10
-4.31
14.80
33.61
50.49
64.04
73.34
78.01
78.24
74.83
70.34
67.35
67.41
70.22
74.04
76.61
75.81
70.14
59.06
45.33
32.85
25.11
23.81
28.84
38.74
50.94
62.24
69.66
74.22
78.70
86.16
98.40
116.11
139.43
168.00
200.74
219.76
211.32
172.32
112.75
46.88
-15.45
-69.96
-115.31
-150.82
-175.95
-187.91
-185.38
-169.99
-146.66
-121.67
-100.04
-84.57
-75.95
-73.32
-72.85
-70.88
-65.23
-56.15
-45.57
-35.88
-29.31
-27.53
-31.07
-36.81
-41.21
-40.45
-32.21
-16.67
3.76
25.13
43.21
53.76
56.37
51.85
41.59
26.76
8.59
-11.00
-29.44
-44.30
-54.31
-59.55
-62.19
-64.79
-68.91
-74.51
-80.27
-85.02
-88.58
-92.17
-95.23
-96.62
-94.12
-85.64
-70.62
-50.39
-27.91
-5.76
13.86
30.47
43.40
51.08
51.43
43.67
30.36
17.36
11.06
15.96
32.09
54.39
75.53
89.44
93.03
88.30
78.66
66.29
51.18
32.20
9.13
-15.70
-37.66
-51.93
-55.79
-50.38
-40.32
-30.38
-24.29
-23.46
-26.76
-31.79
-36.08
-37.97
-36.99
-33.38
-27.52
-19.79
-10.56
-0.40
9.79
18.91
25.96
30.20
31.46
30.18
27.04
22.78
18.00
13.04
8.09
3.23
-1.52
-6.01
-9.95
-12.89
-14.54
-14.86
-14.18
-13.12
-12.35
-12.47
-13.60
-15.52
-17.80
-20.20
-22.77
-25.97
-30.42
-35.97
-42.24
-48.26
-52.64
-53.96
-51.23
-44.29
-33.83
-21.21
-7.96
4.58
15.67
25.11
33.07
39.78
45.38
49.88
53.26
55.65
57.22
58.19
58.65
58.40
56.90
53.53
47.91
40.25
31.46
23.01
16.54
13.30
13.69
17.03
21.72
25.64
26.71
23.48
15.53
3.62
-10.44
-24.26
-35.43
-41.98
-42.76
-37.55
-27.05
-12.78
3.17
18.48
31.09
39.61
43.68
44.00
42.00
39.26
36.89
35.23
33.84
31.94
28.88
24.57
19.44
14.34
10.03
6.92
4.80
3.03
0.78
-2.54
-7.12
-12.67
-18.59
-24.18
-28.87
-32.38
-34.78
-36.60
-38.75
-42.37
-48.54
-57.81
-69.75
-82.82
-94.56
-102.21
-103.64
-97.95
-85.93
-69.71
-52.07
-35.55
-21.73
-11.01
-2.87
3.59
9.14
14.17
18.79
23.01
26.95
30.81
34.71
38.57
42.01
44.53
45.82
45.85
44.96
43.71
42.62
42.04
42.03
42.47
43.11
43.72
44.07
43.91
42.91
40.68
36.84
31.08
23.23
13.21
1.06
-12.96
-28.22
-43.51
-57.16
-67.30
-72.39
-71.73
-65.74
-55.80
-43.87
-31.88
-21.32
-13.02
-7.18
-3.49
-1.22
0.51
2.58
5.65
9.85
14.80
19.68
23.66
26.22
27.53
28.43
30.17
33.87
40.01
48.14
57.01
64.89
70.13
71.61
68.99
62.67
53.58
42.95
31.97
21.57
12.23
3.84
-4.16
-12.63
-22.39
-33.91
-47.08
-61.19
-75.12
-87.68
-98.01
-105.89
-111.81
-116.67
-121.37
-126.15
-130.31
-132.37
-130.66
-124.12
-112.93
-98.42
-82.63
-67.46
-54.07
-42.72
-33.08
-24.72
-17.50
-11.59
-7.10
-3.72
-0.63
3.35
9.25
17.53
27.88
39.39
50.91
61.56
70.95
79.19
86.65
93.71
100.54
107.11
113.28
118.90
123.96
128.65
133.35
138.46
144.12
149.87
154.44
155.74
151.18
138.34
115.66
83.13
42.52
-2.84
-48.39
-89.07
-120.23
-138.59
-143.04
-134.79
-117.05
-94.10
-70.52
-49.75
-33.48
-21.59
-12.92
-6.02
0.26
6.63
13.36
19.76
25.03
28.84
31.44
33.54
36.02
39.67
45.00
51.85
58.05
60.76
57.65
47.83
32.04
12.34
-8.58
-28.32
-45.63
-62.14
-80.21
-101.01
-123.75
-146.03
-165.44
-180.83
-192.64
-193.72
-179.89
-151.97
-116.18
-80.32
-50.01
-28.09
-14.28
-4.86
6.74
25.82
53.69
88.39
123.86
152.29
167.26
166.93
154.76
137.39
120.01
104.89
91.65
77.38
61.13
43.41
26.21
11.93
1.97
-4.56
-9.66
-15.05
-21.23
-27.27
-31.92
-34.32
-34.54
-33.42
-32.27
-31.87
-31.86
-31.25
-29.01
-25.16
-20.82
-17.64
-17.16
-20.26
-26.84
-35.95
-46.06
-55.29
-61.91
-64.63
-63.03
-57.69
-49.84
-40.61
-30.13
-17.22
-0.03
22.58
49.86
78.80
104.88
123.78
132.86
131.89
122.64
107.81
89.95
70.88
51.83
33.89
18.35
6.58
-0.28
-1.84
1.22
7.32
14.39
20.39
23.72
23.50
19.56
12.41
3.22
-6.46
-14.91
-20.80
-23.66
-24.24
-24.27
-25.87
-30.54
-38.44
-48.18
-57.26
-63.08
-63.89
-59.27
-50.07
-37.86
-24.31
-10.69
2.13
13.57
23.20
30.70
36.00
39.43
41.67
43.54
45.68
48.27
51.02
53.31
54.53
54.37
52.91
50.64
48.17
45.94
44.09
42.34
40.22
37.24
33.20
28.27
22.96
17.89
13.53
10.10
7.49
5.36
3.22
0.47
-3.49
-9.09
-16.25
-24.07
-30.86
-34.53
-33.30
-26.43
-14.65
-0.08
14.30
25.42
30.97
29.87
22.42
9.95
-5.69
-22.85
-40.36
-57.56
-73.89
-88.49
-99.96
-106.53
-106.41
-98.16
-81.00
-54.93
-20.86
19.14
61.68
102.10
135.20
156.45
163.07
154.74
133.47
102.73
66.25
27.12
-12.58
-51.62
-89.40
-125.57
-159.88
-191.93
-220.94
-245.58
-263.99
-274.07
-274.24
-264.06
-244.74
-219.00
-190.39
-162.33
-137.30
-116.36
-99.35
-85.41
-73.54
-63.07
-53.65
-45.02
-36.74
-28.10
-18.26
-6.64
6.71
21.18
35.78
49.40
61.07
69.91
75.01
75.48
70.56
59.97
44.20
24.49
2.64
-19.40
-39.88
-57.43
-71.04
-80.14
-84.66
-85.11
-82.61
-78.56
-74.14
-69.86
-65.27
-59.17
-50.12
-36.97
-19.33
2.31
26.60
51.62
75.05
94.58
108.34
115.40
115.98
111.39
103.60
94.46
85.33
76.91
69.51
63.33
58.60
55.42
53.55
52.26
50.47
47.24
42.05
35.27
27.98
21.76
18.33
19.10
24.84
35.25
49.02
63.97
77.80
88.74
96.08
100.35
102.76
104.51
106.10
107.19
106.98
105.05
101.76
98.35
96.42
97.26
101.06
106.67
111.80
113.90
111.33
103.73
91.94
77.70
62.90
49.23
37.88
29.77
25.75
26.97
33.79
45.00
57.73
68.16
72.86
69.98
59.75
44.16
26.53
9.55
-5.42
-18.14
-28.74
-37.09
-43.03
-46.84
-52.99
-63.80
-78.73
-94.44
-107.00
-113.86
-114.35
-109.49
-101.35
-91.97
-82.25
-72.54
-62.90
-53.24
-43.35
-32.81
-21.57
-10.08
0.38
8.52
13.25
14.42
13.09
11.02
9.89
9.95
9.10
4.94
-4.52
-19.82
-39.25
-59.34
-77.61
-91.86
-100.98
-104.95
-104.22
-99.41
-91.59
-82.10
-72.32
-63.74
-57.13
-52.30
-47.97
-42.14
-31.52
-15.25
5.28
27.19
46.75
61.11
69.25
72.35
73.17
74.60
78.41
82.20
83.89
82.08
76.75
68.58
58.16
46.13
33.12
20.22
9.06
1.71
-0.84
0.91
5.74
11.91
17.65
21.06
20.24
13.52
0.03
-20.44
-46.89
-77.27
-109.39
-138.75
-161.57
-175.46
-180.01
-176.54
-167.56
-155.45
-141.01
-122.90
-98.02
-63.62
-19.33
31.41
81.76
123.63
150.67
160.65
155.89
141.97
124.96
109.35
97.09
88.12
81.71
77.66
76.28
77.79
81.55
85.56
87.00
83.10
72.21
54.92
34.02
13.42
-3.23
-13.97
-18.76
-19.31
-18.22
-18.00
-20.22
-24.60
-29.63
-33.40
-34.44
-31.49
-23.89
-11.73
3.72
21.05
39.10
57.04
74.40
87.26
91.57
85.62
70.72
49.26
24.77
1.26
-19.57
-36.24
-48.59
-57.43
-64.71
-69.34
-71.88
-72.72
-71.83
-69.17
-64.69
-58.88
-52.23
-45.22
-38.35
-32.67
-28.95
-27.85
-29.94
-35.41
-43.98
-54.28
-63.96
-70.25
-71.21
-65.82
-54.46
-38.88
-21.56
-5.05
8.94
19.89
28.32
35.05
40.97
46.56
51.73
55.97
58.72
59.67
58.96
57.16
54.84
52.50
50.46
48.72
47.14
45.43
43.30
40.42
36.55
31.46
25.05
17.40
8.78
-0.50
-10.11
-19.84
-29.69
-39.83
-50.49
-61.77
-73.28
-84.11
-92.74
-97.47
-96.90
-90.44
-78.56
-62.65
-44.58
-26.08
-8.45
7.60
21.79
33.98
44.05
51.79
57.24
60.51
61.79
61.32
59.37
56.27
52.29
47.67
42.53
37.12
31.53
25.66
19.18
11.76
3.13
-6.76
-17.68
-29.18
-40.40
-50.78
-60.41
-70.08
-80.90
-93.84
-109.39
-127.18
-145.87
-162.47
-174.08
-179.10
-177.58
-170.85
-160.92
-150.01
-139.91
-131.48
-122.51
-110.71
-95.30
-77.29
-58.45
-40.57
-25.26
-13.80
-6.68
-0.43
8.34
20.86
36.63
55.17
76.83
102.06
130.56
160.99
195.01
232.73
271.15
305.73
333.52
354.26
369.16
379.05
359.76
299.85
209.55
112.91
28.66
-36.46
-83.37
-115.73
-137.82
-153.30
-160.77
-159.00
-150.45
-138.59
-127.00
-117.76
-111.29
-107.24
-104.89
-100.55
-91.79
-79.17
-65.23
-52.23
-42.63
-36.87
-34.56
-34.87
-34.81
-31.95
-25.89
-17.98
-10.14
-3.88
0.65
3.58
5.22
6.92
9.71
13.41
16.83
18.57
18.04
16.56
15.48
15.54
17.04
19.88
23.72
28.45
34.41
42.60
55.44
73.80
96.27
119.93
141.80
159.85
173.37
182.53
187.95
191.59
193.50
191.95
184.98
172.21
155.32
137.21
120.42
95.27
59.28
16.58
-25.62
-62.11
-90.48
-109.78
-119.96
-123.24
-121.87
-116.14
-107.31
-97.67
-89.85
-85.86
-86.93
-92.51
-101.66
-112.35
-120.64
-123.41
-119.20
-108.10
-91.07
-69.62
-45.69
-21.74
-0.07
18.17
32.10
41.28
45.94
47.05
45.85
43.24
39.35
33.91
26.88
18.10
7.46
-4.86
-18.29
-31.88
-44.64
-55.80
-64.89
-71.71
-76.50
-79.79
-82.07
-83.61
-84.34
-84.03
-82.46
-79.52
-75.37
-70.38
-65.18
-60.46
-56.89
-54.79
-53.94
-53.51
-52.11
-48.24
-40.73
-29.23
-14.40
2.31
19.12
34.51
47.55
57.99
65.93
71.56
74.93
76.04
75.02
72.34
68.84
65.57
63.42
62.88
63.86
65.87
68.19
70.22
71.59
72.19
72.10
71.49
70.47
69.13
67.51
65.67
63.66
61.42
58.64
54.77
49.16
41.38
31.60
20.86
10.86
3.52
0.25
1.41
6.20
12.91
19.57
24.55
27.01
26.89
24.81
21.73
18.53
15.80
13.56
11.33
8.34
3.82
-2.69
-11.14
-20.98
-31.38
-41.50
-50.73
-58.81
-65.79
-71.92
-77.58
-83.23
-89.29
-96.15
-104.11
-113.28
-123.48
-134.15
-144.25
-152.50
-157.53
-158.04
-153.05
-142.23
-125.96
-105.33
-81.85
-57.16
-32.96
-10.64
9.04
26.08
40.96
54.34
66.88
78.95
90.69
101.69
111.27
118.98
124.80
128.73
130.44
129.09
123.51
112.77
96.39
74.77
49.58
23.34
-1.71
-24.07
-43.13
-58.61
-67.60
-66.63
-55.64
-38.86
-21.74
-8.25
0.26
5.18
8.95
13.92
21.40
31.44
43.41
56.84
69.31
79.23
85.67
88.37
87.70
83.98
77.43
68.71
59.01
49.70
42.04
36.59
32.86
29.68
25.35
18.49
8.94
-2.07
-12.55
-20.46
-24.74
-25.71
-24.78
-23.98
-25.09
-28.85
-34.98
-42.84
-51.87
-61.83
-72.43
-82.63
-91.04
-95.73
-94.88
-87.77
-75.60
-61.16
-47.46
-36.34
-27.74
-21.11
-15.45
-9.68
-3.00
4.55
12.31
19.63
26.30
32.56
37.17
39.16
39.05
38.90
40.69
44.81
49.86
53.30
52.63
44.18
25.92
-1.24
-34.29
-70.29
-107.88
-146.46
-184.92
-207.57
-201.94
-167.86
-117.42
-64.37
-17.17
20.35
47.25
64.11
72.37
71.81
62.62
46.91
28.47
11.11
-3.23
-14.13
-22.00
-27.41
-32.40
-38.50
-45.59
-53.07
-58.32
-60.04
-58.10
-53.15
-46.13
-39.13
-33.99
-31.38
-30.73
-30.68
-30.38
-29.37
-27.73
-25.78
-24.50
-24.51
-25.39
-25.67
-23.51
-17.78
-8.08
4.39
18.23
31.97
44.68
56.11
66.47
75.79
83.45
88.41
89.81
87.76
83.57
79.49
77.89
80.26
86.48
94.69
102.08
105.95
104.89
98.97
89.43
78.03
66.47
56.15
48.13
42.94
40.15
38.13
34.16
25.43
10.53
-9.33
-30.24
-46.89
-54.74
-51.85
-39.41
-20.93
-0.36
19.33
36.81
51.76
63.92
72.40
75.78
72.94
63.83
49.93
33.78
18.03
4.39
-6.76
-16.17
-24.90
-33.50
-41.64
-48.32
-52.57
-54.11
-53.64
-52.52
-52.32
-54.16
-58.61
-65.59
-74.47
-84.13
-92.95
-99.01
-100.54
-96.50
-87.07
-73.60
-58.10
-42.46
-27.89
-14.79
-3.13
7.09
15.50
21.54
24.82
25.48
24.25
22.14
19.97
18.06
16.19
13.88
10.73
6.75
2.36
-1.86
-5.51
-8.55
-11.30
-14.38
-18.43
-24.03
-31.56
-41.12
-52.32
-64.14
-74.98
-82.81
-85.80
-82.88
-74.13
-60.86
-45.04
-28.69
-13.33
0.19
11.57
20.67
27.26
31.02
31.71
29.46
24.80
18.59
11.68
4.64
-2.37
-9.37
-16.34
-22.89
-28.22
-31.38
-31.68
-29.07
-24.24
-18.47
-13.19
-9.64
-8.59
-10.19
-13.94
-18.68
-22.73
-24.25
-21.73
-14.58
-3.37
10.30
24.45
37.39
48.25
57.04
64.26
70.42
75.68
79.82
82.42
83.15
81.97
79.09
74.88
69.68
63.70
57.04
49.85
42.39
35.07
28.36
22.63
18.03
14.46
11.55
8.84
5.90
2.49
-1.45
-5.60
-9.34
-11.83
-12.23
-9.94
-4.87
2.59
11.69
21.54
31.36
40.50
48.41
54.60
58.65
60.35
59.82
57.53
54.12
50.20
46.10
41.88
37.38
32.45
27.05
21.32
15.54
9.97
4.78
-0.06
-4.79
-9.72
-15.19
-21.45
-28.53
-36.29
-44.22
-51.39
-56.52
-58.25
-55.55
-48.19
-36.85
-22.94
-8.11
6.35
19.77
32.05
43.34
53.66
62.83
70.53
76.61
81.27
84.91
87.96
90.56
92.43
92.99
91.62
87.99
82.26
75.08
67.38
59.93
53.09
46.70
40.14
32.70
23.78
13.10
0.80
-12.62
-26.24
-38.79
-48.79
-54.89
-56.25
-52.96
-45.99
-36.90
-27.25
-18.17
-10.31
-4.05
0.05
1.25
-1.08
-6.93
-15.29
-24.31
-31.97
-36.99
-39.36
-40.25
-41.31
-43.74
-47.80
-52.84
-57.97
-62.65
-67.12
-72.16
-78.54
-86.52
-95.68
-105.16
-114.00
-121.43
-126.87
-129.71
-129.16
-124.43
-114.98
-100.92
-83.19
-63.42
-43.56
-25.48
-10.59
0.27
6.91
9.63
9.08
6.14
1.77
-3.11
-7.67
-11.36
-14.05
-16.03
-17.87
-19.95
-22.17
-23.64
-23.08
-19.31
-11.86
-1.32
10.72
22.13
30.87
35.64
36.26
33.85
30.45
28.50
30.09
36.30
46.99
60.97
76.48
91.80
105.46
116.23
123.02
124.99
121.81
114.01
103.02
90.87
79.49
70.15
63.13
57.89
53.47
49.03
44.16
38.81
32.98
26.48
18.68
8.80
-3.73
-18.77
-35.32
-51.79
-66.50
-78.30
-86.76
-92.01
-94.21
-93.24
-88.70
-80.33
-68.38
-53.85
-38.24
-23.16
-9.83
1.04
9.16
14.63
17.72
18.93
18.93
18.42
17.86
17.36
16.68
15.45
13.40
10.42
6.62
2.07
-3.16
-9.05
-15.49
-22.34
-29.46
-36.89
-44.90
-53.76
-63.44
-73.32
-82.05
-87.99
-89.54
-85.76
-76.64
-63.11
-46.68
-29.10
-11.95
3.61
16.75
26.95
33.88
37.41
37.70
35.33
31.23
26.49
22.01
18.25
15.12
12.08
8.57
4.30
-0.62
-5.75
-10.66
-15.12
-19.32
-23.63
-28.51
-34.28
-41.01
-48.53
-56.39
-63.85
-69.84
-73.09
-72.47
-67.31
-57.72
-44.63
-29.55
-14.12
0.31
12.92
23.36
31.62
37.80
42.05
44.59
45.77
46.02
45.71
44.99
43.73
41.60
38.29
33.71
28.18
22.26
16.58
11.48
6.81
1.85
-4.44
-13.19
-25.14
-40.35
-57.86
-75.73
-91.27
-101.63
-104.53
-98.96
-85.51
-66.17
-43.66
-20.56
1.32
21.19
38.98
54.88
68.86
80.51
89.29
94.85
97.28
97.09
95.12
92.22
89.10
86.22
83.80
81.81
80.08
78.34
76.42
74.19
71.56
68.38
64.30
58.74
51.04
40.79
28.17
14.18
0.57
-10.57
-17.43
-19.00
-15.43
-7.93
1.71
11.66
20.67
28.15
34.06
38.49
41.35
42.27
40.82
36.80
30.57
22.98
15.19
8.22
2.58
-1.79
-5.45
-9.05
-12.97
-17.19
-21.29
-24.80
-27.38
-29.05
-30.15
-31.19
-32.73
-35.23
-39.04
-44.31
-50.90
-58.14
-64.85
-69.39
-70.14
-65.98
-56.77
-43.35
-27.31
-10.51
5.49
19.66
31.51
40.86
47.67
51.85
53.43
52.68
50.10
46.48
42.63
39.16
36.41
34.32
32.54
30.60
28.10
24.84
20.84
16.36
11.70
7.12
2.72
-1.53
-5.83
-10.44
-15.73
-22.05
-29.74
-38.87
-48.95
-58.85
-66.81
-70.91
-69.64
-62.52
-50.23
-34.52
-17.50
-1.12
13.40
25.61
35.62
43.71
50.05
54.62
57.39
58.46
58.25
57.39
56.53
56.18
56.51
57.32
58.13
58.32
57.31
54.78
50.67
45.24
38.90
32.07
25.08
18.02
10.85
3.31
-5.00
-14.69
-26.48
-40.78
-57.29
-74.64
-90.53
-102.37
-108.15
-107.17
-100.30
-89.48
-76.91
-64.42
-52.97
-42.79
-33.74
-25.59
-18.31
-12.03
-6.94
-3.22
-0.95
-0.06
-0.34
-1.51
-3.23
-5.21
-7.21
-8.97
-10.19
-10.66
-10.39
-9.71
-9.18
-9.41
-10.69
-12.79
-15.02
-16.51
-16.71
-15.68
-14.21
-13.59
-15.00
-18.97
-24.87
-30.86
-34.36
-32.83
-24.70
-10.00
9.61
31.42
52.59
71.07
85.88
97.05
104.92
109.78
111.57
110.05
105.23
97.51
87.70
76.70
65.27
53.94
43.12
33.28
24.87
18.08
12.50
7.07
0.35
-8.88
-21.05
-35.56
-50.99
-65.66
-78.24
-88.22
-95.91
-102.22
-108.16
-114.51
-121.32
-127.88
-132.76
-134.23
-130.85
-122.00
-108.18
-90.82
-71.93
-53.46
-36.85
-22.79
-11.33
-2.15
5.21
11.11
15.80
19.47
22.22
24.23
25.66
26.67
27.46
28.24
29.19
30.53
32.34
34.51
36.69
38.27
38.53
36.82
32.85
26.79
19.25
11.07
2.90
-5.05
-13.14
-21.98
-31.99
-42.88
-53.42
-61.74
-65.93
-64.77
-58.17
-47.15
-33.48
-19.00
-5.22
6.88
16.75
24.05
28.59
30.35
29.68
27.30
24.31
21.84
20.83
21.67
24.25
27.97
32.12
36.13
39.73
42.98
45.95
48.63
50.82
52.28
52.94
52.95
52.58
52.03
51.16
49.50
46.34
41.05
33.35
23.53
12.50
1.76
-6.90
-11.72
-11.54
-6.16
3.59
16.11
29.59
42.50
53.94
63.52
71.10
76.53
79.56
79.94
77.59
72.76
65.97
57.82
48.84
39.27
29.28
19.06
9.01
-0.25
-8.16
-14.44
-19.31
-23.44
-27.63
-32.53
-38.35
-44.99
-52.28
-60.25
-69.14
-79.32
-91.01
-104.07
-117.79
-130.90
-141.60
-147.84
-147.77
-140.36
-125.78
-105.52
-82.07
-58.05
-35.56
-15.59
1.85
17.23
30.94
42.94
52.79
60.04
64.55
66.65
67.01
66.32
65.09
63.48
61.50
59.09
56.30
53.27
50.12
46.86
43.35
39.42
34.92
29.89
24.47
18.87
13.25
7.54
1.35
-5.90
-14.68
-24.97
-36.07
-46.57
-54.67
-58.64
-57.23
-50.07
-37.78
-21.87
-4.57
11.52
23.79
30.24
30.00
23.60
12.74
-0.27
-13.12
-24.01
-31.98
-36.81
-38.83
-38.36
-35.96
-32.55
-29.41
-27.66
-27.91
-30.10
-33.66
-37.62
-40.24
-39.92
-35.93
-28.81
-19.98
-11.13
-3.95
-0.16
-1.27
-7.43
-17.95
-32.00
-48.53
-65.54
-79.88
-87.99
-87.10
-76.05
-54.48
-23.65
13.02
50.82
85.84
116.28
142.34
165.31
177.27
172.04
150.75
121.65
93.58
71.57
56.74
47.44
40.58
34.96
28.74
22.10
15.93
10.75
6.76
3.92
1.73
-0.70
-5.51
-12.81
-21.63
-31.25
-41.68
-52.92
-64.41
-74.90
-82.76
-86.55
-84.89
-77.31
-65.02
-50.47
-36.21
-23.98
-14.50
-7.80
-3.63
-1.37
-0.33
-0.06
-0.30
-0.73
-0.89
-0.37
0.98
2.94
5.14
7.07
8.17
8.06
6.69
4.42
1.85
-0.49
-2.42
-4.10
-5.96
-8.48
-12.02
-16.71
-22.46
-28.95
-35.52
-41.10
-44.22
-43.40
-37.61
-26.73
-11.77
5.47
22.93
38.95
52.60
63.56
71.85
77.46
80.24
80.08
77.15
72.10
66.00
60.05
55.17
51.77
49.61
48.01
46.15
43.32
39.20
33.82
27.44
20.38
12.97
5.44
-2.07
-9.58
-17.29
-25.59
-35.01
-45.93
-58.31
-71.31
-83.31
-92.15
-95.79
-92.95
-83.67
-69.30
-52.07
-34.41
-18.22
-4.49
6.60
15.35
22.14
27.23
30.66
32.50
33.00
32.56
31.75
31.04
30.72
30.78
30.96
30.81
29.92
27.99
24.96
20.94
16.18
10.96
5.46
-0.23
-6.10
-12.19
-18.64
-25.69
-33.66
-42.81
-53.03
-63.51
-72.75
-78.82
-79.85
-74.79
-63.80
-48.30
-30.47
-12.58
3.68
17.50
28.80
37.91
45.11
50.49
53.97
55.55
55.44
54.13
52.16
49.97
47.79
45.57
43.17
40.43
37.31
33.79
29.90
25.64
20.96
15.86
10.32
4.40
-1.81
-8.24
-14.89
-21.91
-29.61
-38.33
-48.14
-58.56
-68.32
-75.49
-78.07
-74.66
-65.03
-50.31
-32.61
-14.35
2.58
17.13
29.19
39.11
47.35
54.09
59.24
62.63
64.22
64.20
62.92
60.77
57.99
54.71
51.00
46.91
42.59
38.20
33.79
29.27
24.43
19.07
13.21
7.18
1.48
-3.37
-7.19
-10.22
-13.20
-17.10
-22.82
-30.81
-40.75
-51.41
-60.88
-66.94
-67.77
-62.50
-51.49
-36.29
-19.05
-1.91
13.62
26.90
37.94
47.10
54.68
60.73
65.18
67.93
69.00
68.66
67.29
65.29
63.03
60.80
58.83
57.28
56.07
54.75
52.46
48.20
41.16
31.19
18.96
5.79
-6.80
-17.69
-26.41
-33.24
-38.91
-44.31
-50.19
-57.04
-64.98
-73.59
-81.83
-88.13
-90.72
-88.25
-80.30
-67.59
-51.79
-35.00
-19.11
-5.32
5.88
14.62
21.26
26.23
29.80
32.17
33.44
33.75
33.27
32.19
30.73
29.13
27.59
26.30
25.41
24.93
24.63
23.98
22.22
18.57
12.62
4.55
-4.86
-14.40
-22.94
-29.86
-35.24
-39.83
-44.65
-50.61
-58.06
-66.64
-75.27
-82.39
-86.36
-85.87
-80.34
-70.10
-56.38
-40.89
-25.39
-11.26
0.70
10.21
17.40
22.50
25.82
27.68
28.39
28.29
27.68
26.69
25.30
23.36
20.77
17.58
14.10
10.74
7.80
5.30
2.90
-0.04
-4.19
-9.92
-17.15
-25.31
-33.68
-41.64
-49.00
-56.06
-63.51
-72.10
-82.36
-94.32
-107.31
-119.98
-130.35
-136.23
-135.67
-127.63
-112.40
-91.73
-68.45
-45.64
-25.81
-10.09
1.73
10.71
17.91
23.83
28.27
30.78
31.27
30.08
27.77
24.45
19.53
11.82
0.35
-14.87
-32.36
-49.45
-63.20
-71.44
-73.50
-70.32
-64.01
-57.00
-51.18
-47.43
-45.45
-44.09
-41.86
-37.53
-30.43
-20.47
-8.02
6.29
21.73
37.53
52.91
67.23
79.99
90.95
100.08
107.49
113.41
118.20
122.49
127.06
132.74
140.10
149.24
159.70
170.47
180.26
187.66
191.46
190.88
185.72
176.49
164.17
150.02
135.08
119.92
104.59
88.76
71.74
53.24
33.58
13.44
-6.36
-25.24
-42.46
-57.10
-68.19
-75.22
-77.87
-76.03
-69.74
