1647478702.00
64.000000
-0.00
-0.00
-0.00
-0.00
-0.00
-0.00
-0.00
-0.00
-0.00
-0.00
0.00
0.01
0.01
-0.00
-0.03
-0.05
-0.05
0.00
0.13
0.36
0.66
1.01
1.37
1.72
2.06
2.40
2.79
3.24
3.80
4.42
5.06
5.66
6.20
6.68
7.15
7.68
8.31
9.14
10.09
11.04
11.88
12.56
13.14
13.76
14.65
15.96
17.91
20.32
22.90
25.38
27.58
29.57
31.68
34.32
37.81
42.54
48.15
54.10
59.83
64.97
69.58
74.14
79.34
85.71
93.76
103.00
112.62
121.73
129.77
136.75
143.30
150.75
157.77
166.64
177.95
191.79
206.97
220.57
228.25
225.36
208.53
176.87
132.76
80.05
23.07
-34.94
-92.44
-149.16
-205.23
-260.37
-313.74
-363.87
-409.82
-450.88
-486.46
-515.67
-537.13
-549.08
-549.78
-538.14
-513.92
-478.32
-433.46
-381.97
-326.46
-269.21
-211.93
-155.87
-102.09
-51.42
-4.87
36.71
72.66
102.69
126.96
145.96
160.42
171.03
178.43
183.01
185.06
184.80
182.52
178.56
173.33
167.23
160.63
153.76
146.76
139.72
132.66
125.64
118.72
111.97
105.46
99.24
93.34
87.79
82.59
77.74
73.27
69.18
65.46
62.14
59.22
56.69
54.56
52.81
51.41
50.33
49.51
48.83
48.17
47.35
46.20
44.51
42.12
38.91
34.78
29.75
23.84
17.20
10.04
2.63
-4.73
-11.76
-18.15
-23.69
-28.17
-31.50
-33.63
-34.58
-34.47
-33.41
-31.58
-29.15
-26.29
-23.16
-19.88
-16.53
-13.21
-9.97
-6.84
-3.86
-1.00
1.75
4.42
7.05
9.69
12.34
15.00
17.72
20.51
23.43
26.51
29.81
33.38
37.30
41.48
45.87
50.45
55.19
60.09
65.13
70.34
75.76
81.45
87.26
93.11
98.92
104.67
110.34
115.93
121.43
126.89
132.35
137.56
142.33
146.49
149.82
152.10
153.00
152.09
148.72
144.16
138.87
133.16
127.23
121.22
115.23
109.33
103.58
98.02
92.73
87.50
82.21
76.82
71.35
65.85
60.39
55.03
49.84
44.88
40.02
35.19
30.38
25.64
21.02
16.56
12.29
8.17
4.19
0.20
-3.84
-7.91
-11.87
-15.59
-18.96
-22.01
-24.86
-27.70
-30.78
-34.16
-37.74
-41.26
-44.41
-47.04
-49.23
-51.34
-53.86
-57.27
-61.75
-67.12
-72.92
-78.56
-83.72
-88.49
-93.41
-99.29
-106.82
-116.28
-127.39
-139.48
-151.77
-163.74
-175.35
-187.01
-199.44
-213.56
-230.40
-250.92
-275.42
-302.86
-330.41
-353.64
-367.73
-369.14
-356.94
-333.33
-302.65
-269.81
-238.58
-210.85
-186.77
-165.76
-147.32
-131.35
-117.93
-106.86
-97.39
-88.49
-79.36
-69.94
-60.96
-53.71
-49.17
-47.32
-46.81
-45.23
-40.07
-29.82
-14.61
3.68
22.19
38.13
49.64
56.27
58.79
58.62
57.23
55.72
54.65
54.13
53.98
53.70
52.61
49.83
44.64
36.89
27.41
17.91
10.44
6.31
5.47
6.50
7.38
6.93
5.59
5.39
8.94
18.01
32.41
49.65
65.59
75.61
75.90
64.40
41.33
9.04
-28.39
-65.81
-98.08
-121.18
-133.44
-135.86
-131.51
-124.05
-116.24
-109.07
-102.17
-94.93
-87.45
-80.80
-76.06
-73.21
-70.56
-65.38
-55.57
-41.03
-23.81
-7.02
6.89
17.39
26.07
35.72
49.06
67.91
92.93
123.83
159.68
198.92
239.33
277.90
311.15
335.93
350.42
354.91
351.81
344.75
337.04
330.21
323.34
313.47
296.97
271.25
235.96
193.26
147.28
102.92
64.90
36.98
21.70
20.27
32.20
54.73
82.61
108.69
125.43
126.96
110.64
77.33
30.37
-25.62
-85.18
-141.73
-187.57
-215.27
-220.67
-205.54
-178.43
-152.12
-138.84
-145.70
-173.12
-216.76
-271.33
-333.17
-399.99
-468.45
-532.11
-581.89
-609.42
-611.17
-590.62
-556.91
-520.69
-489.73
-466.40
-448.06
-429.66
-406.76
-377.37
-342.09
-302.98
-262.25
-221.23
-180.06
-137.95
-93.70
-46.48
3.70
55.85
108.28
159.31
207.75
253.38
296.93
339.58
382.50
426.70
473.19
522.79
575.44
629.01
678.57
716.82
736.15
731.43
702.14
652.74
590.69
523.43
455.99
390.46
327.24
266.99
211.59
163.57
124.43
93.38
67.44
42.93
17.69
-7.95
-31.57
-50.18
-62.24
-68.53
-71.89
-75.81
-83.11
-94.96
-110.53
-127.11
-140.39
-145.08
-136.01
-109.90
-67.09
-12.48
45.36
96.93
135.40
159.26
172.45
181.94
193.98
211.01
230.75
247.92
257.08
255.27
242.67
221.59
194.67
163.59
128.99
91.44
52.75
16.20
-14.35
-36.11
-48.88
-55.49
-60.76
-69.61
-85.03
-106.90
-132.35
-157.22
-177.84
-192.32
-200.78
-204.59
-205.35
-204.10
-201.19
-196.67
-190.72
-183.82
-176.60
-169.56
-162.88
-156.44
-150.11
-144.05
-138.87
-135.39
-134.31
-135.65
-138.50
-141.14
-141.68
-138.72
-132.03
-122.61
-112.19
-102.63
-95.25
-90.61
-88.60
-88.66
-90.01
-91.71
-92.75
-92.02
-88.60
-82.11
-72.84
-61.69
-49.83
-38.25
-27.57
-17.96
-9.33
-1.55
5.28
10.81
14.47
15.65
14.00
9.63
3.28
-3.82
-10.10
-14.26
-15.56
-14.18
-11.09
-7.71
-5.40
-4.98
-6.50
-9.31
-12.51
-15.23
-17.12
-18.29
-19.19
-20.28
-21.81
-23.80
-26.11
-28.53
-30.73
-32.14
-31.92
-29.07
-22.81
-13.04
-0.47
13.45
26.95
38.53
47.46
53.88
58.72
63.21
68.30
74.24
80.42
85.60
88.49
88.43
85.69
81.24
76.43
72.46
70.20
70.27
72.94
77.58
81.96
82.55
75.84
60.50
38.86
16.78
1.19
-3.11
4.13
18.58
33.60
43.48
45.82
41.69
33.99
24.96
14.74
1.26
-18.46
-46.75
-84.51
-131.32
-186.17
-247.89
-314.88
-384.18
-450.54
-506.70
-545.15
-560.69
-552.64
-525.23
-485.94
-442.58
-400.62
-362.13
-326.63
-293.00
-261.28
-233.08
-210.64
-195.06
-185.09
-177.14
-166.70
-150.22
-126.56
-97.20
-64.76
-31.15
3.78
42.12
86.17
136.80
192.59
250.40
306.74
358.83
405.07
444.99
479.34
510.34
541.49
576.54
617.45
662.39
705.11
736.51
748.12
735.49
699.98
647.91
587.61
526.26
468.08
414.38
364.80
318.77
276.18
237.34
202.50
171.38
143.02
116.26
90.13
64.14
38.38
12.86
-13.02
-40.86
-72.49
-108.24
-145.28
-177.64
-198.28
-202.55
-191.27
-171.26
-152.89
-145.96
-156.04
-183.09
-222.49
-267.09
-309.04
-341.01
-357.21
-354.66
-334.53
-302.24
-265.71
-232.09
-204.64
-181.77
-158.88
-131.13
-95.74
-52.33
-1.67
55.52
118.50
185.11
250.85
309.10
353.24
378.92
385.28
374.48
349.95
315.12
273.43
229.01
187.05
152.92
130.04
118.17
113.14
108.71
99.47
83.23
61.35
37.25
13.95
-7.66
-29.00
-52.54
-80.62
-114.42
-153.86
-197.67
-242.86
-284.19
-314.18
-324.95
-311.09
-272.96
-217.83
-158.18
-107.18
-73.57
-58.62
-56.94
-60.06
-61.02
-57.10
-49.56
-40.92
-32.25
-22.08
-7.69
12.60
37.75
64.08
87.47
106.02
121.53
138.81
163.47
198.63
242.76
289.65
330.35
356.57
363.68
352.19
326.98
295.02
262.41
232.59
205.99
181.23
156.88
132.79
110.07
90.22
74.04
60.84
48.67
35.33
19.41
0.97
-18.61
-37.42
-54.05
-68.30
-81.38
-95.35
-112.42
-134.09
-160.62
-190.69
-221.74
-250.40
-273.51
-289.02
-296.62
-297.65
-294.50
-289.53
-284.25
-279.12
-274.00
-268.94
-264.61
-262.20
-262.89
-267.14
-274.61
-284.50
-296.11
-309.24
-324.26
-341.65
-361.84
-385.30
-412.80
-445.45
-483.67
-525.81
-567.07
-599.97
-616.49
-611.28
-584.09
-540.02
-487.48
-434.78
-387.37
-346.80
-311.90
-280.84
-252.78
-228.10
-207.47
-190.78
-176.61
-162.82
-147.60
-130.44
-112.12
-94.48
-79.32
-67.54
-58.84
-51.93
-45.15
-37.23
-27.78
-17.35
-7.08
1.96
9.24
14.97
20.04
25.53
32.31
40.63
50.18
60.14
69.64
78.01
85.02
90.84
95.92
100.77
105.77
111.03
116.47
121.89
127.11
132.14
137.16
142.60
148.88
156.38
165.16
174.95
185.23
195.29
204.48
212.36
218.77
223.93
228.40
233.03
238.74
246.05
254.67
263.17
269.19
270.09
263.92
250.16
229.93
205.50
179.34
153.35
128.40
104.45
81.01
57.58
33.95
10.39
-12.22
-32.47
-48.39
-57.98
-59.77
-53.43
-40.02
-21.81
-1.69
17.49
33.52
45.10
51.86
54.20
53.01
49.36
44.18
38.03
31.12
23.41
14.84
5.56
-4.14
-13.91
-23.47
-32.74
-41.71
-50.33
-58.41
-65.59
-71.47
-75.62
-77.53
-76.50
-71.58
-61.84
-46.76
-26.70
-3.06
22.16
47.02
70.47
92.52
113.88
135.24
156.64
177.39
196.48
213.10
226.99
238.32
247.30
253.89
257.66
258.10
254.85
247.98
237.81
224.84
209.57
192.53
174.41
156.06
138.45
122.51
108.99
98.18
89.89
83.57
78.57
74.48
71.29
69.17
68.18
67.94
67.71
66.71
64.62
61.86
59.47
58.65
60.27
64.51
70.84
78.13
84.86
89.36
90.19
86.63
78.92
68.39
56.84
45.68
35.00
23.16
6.75
-18.63
-56.69
-108.57
-171.22
-237.22
-296.48
-339.21
-359.20
-355.69
-333.05
-298.40
-258.53
-217.67
-177.00
-135.89
-93.38
-49.28
-3.85
43.07
92.51
145.38
200.49
253.42
297.13
324.98
334.07
327.36
312.68
298.97
292.07
292.34
295.71
296.99
293.21
285.06
275.41
266.33
257.03
243.74
221.51
186.78
139.39
83.19
25.37
-25.35
-61.36
-78.80
-79.08
-68.79
-57.53
-54.70
-66.56
-94.91
-137.74
-190.77
-249.02
-307.34
-360.22
-401.55
-425.30
-427.01
-405.21
-362.13
-303.05
-235.01
-165.50
-101.14
-46.78
-5.05
24.18
43.59
57.58
70.93
87.27
108.10
132.69
158.80
183.64
204.69
219.96
227.96
227.70
218.87
202.13
179.38
153.57
128.15
106.40
90.65
81.64
78.42
78.62
79.34
78.19
74.02
67.07
58.47
49.44
40.63
31.94
22.93
13.35
3.64
-5.22
-12.17
-16.67
-19.16
-20.76
-22.70
-25.62
-29.19
-32.22
-33.31
-31.50
-26.68
-19.58
-11.29
-2.75
5.62
13.83
22.02
30.12
37.78
44.29
48.61
49.40
45.31
35.56
20.55
2.53
-14.34
-24.68
-23.12
-5.93
27.78
75.63
132.42
191.30
244.96
286.84
312.04
318.02
304.86
275.14
233.11
183.55
130.60
76.96
23.82
-28.62
-80.40
-131.24
-180.37
-227.06
-271.03
-312.76
-353.59
-395.58
-441.14
-492.07
-548.13
-605.80
-657.95
-695.31
-709.25
-694.98
-653.38
-590.63
-515.56
-436.34
-358.00
-281.86
-206.63
-130.24
-51.34
30.01
112.26
192.57
266.90
330.33
377.67
404.55
408.56
390.16
353.08
303.67
249.72
198.75
156.61
126.56
109.21
103.02
105.22
112.65
122.38
132.00
139.91
145.41
148.75
150.80
152.65
155.04
158.05
161.09
163.07
162.78
159.11
151.31
139.25
123.78
106.76
90.72
78.11
70.27
66.80
65.49
63.27
57.60
47.71
35.04
22.63
13.64
9.76
10.49
13.55
16.34
17.29
16.68
16.16
17.50
21.41
26.98
32.24
35.21
34.77
30.79
23.55
13.00
-1.43
-20.32
-43.32
-68.60
-93.26
-114.61
-131.69
-145.72
-159.04
-173.21
-187.21
-197.30
-198.70
-187.97
-164.91
-132.52
-95.41
-57.52
-20.71
15.30
51.44
87.75
122.47
152.57
174.87
187.42
190.26
185.46
176.51
167.07
159.77
155.13
151.21
144.21
129.75
104.37
66.80
18.73
-35.04
-87.51
-131.49
-161.99
-178.34
-184.78
-188.97
-199.17
-221.45
-258.01
-307.26
-364.91
-424.83
-479.52
-520.96
-542.41
-541.10
-519.90
-486.83
-451.51
-420.46
-393.96
-366.56
-331.00
-283.13
-224.86
-163.31
-106.95
-61.26
-26.45
1.68
28.71
58.63
92.35
128.08
163.27
196.37
227.87
260.21
296.90
340.71
392.41
449.68
506.84
555.77
587.89
596.69
579.89
540.33
484.91
421.89
358.08
297.01
238.83
181.84
124.35
65.86
6.96
-51.81
-110.57
-169.53
-227.45
-280.36
-322.00
-345.97
-348.98
-333.40
-307.18
-280.85
-263.15
-257.23
-259.60
-262.36
-257.12
-238.60
-206.21
-162.96
-112.90
-58.81
-1.45
59.30
122.55
184.68
239.28
278.84
297.45
293.21
268.74
229.91
183.46
134.65
86.26
38.84
-7.93
-54.15
-99.47
-143.82
-188.40
-235.93
-289.76
-351.79
-420.46
-489.79
-550.50
-593.01
-611.00
-603.79
-576.32
-536.89
-493.75
-452.33
-414.29
-378.56
-343.34
-307.84
-272.69
-239.34
-208.83
-180.98
-154.42
-127.25
-97.97
-66.35
-33.54
-1.63
27.31
52.20
73.53
93.38
114.58
139.66
169.61
203.46
238.57
271.67
300.17
323.20
341.97
359.17
378.12
401.66
431.35
466.78
504.99
540.52
566.23
575.20
562.88
529.01
477.71
415.85
350.21
284.94
220.46
154.40
84.16
9.64
-65.24
-132.96
-184.85
-214.15
-218.31
-199.32
-162.48
-114.30
-60.41
-4.20
52.91
110.25
166.27
217.36
258.04
282.42
286.42
269.76
236.96
196.59
159.04
133.23
123.37
127.55
138.59
147.13
145.97
133.44
113.97
95.74
86.47
88.95
99.58
110.16
112.21
101.20
78.65
51.22
27.72
15.44
17.71
33.22
57.08
82.78
104.50
118.85
125.39
126.11
123.70
119.56
113.03
101.84
83.86
58.60
27.87
-4.76
-35.26
-60.32
-77.93
-87.13
-87.90
-80.99
-67.59
-49.52
-29.33
-10.50
2.79
6.52
-1.63
-20.82
-46.76
-73.16
-94.01
-105.49
-106.46
-97.64
-80.51
-57.07
-30.67
-6.60
8.61
9.06
-7.62
-39.12
-79.49
-122.27
-163.85
-205.00
-249.87
-302.96
-365.96
-435.77
-504.94
-563.93
-604.30
-621.58
-616.62
-594.77
-563.19
-527.82
-491.42
-453.74
-413.45
-370.47
-327.03
-286.80
-252.74
-224.96
-200.26
-173.40
-139.15
-94.09
-37.40
28.99
100.53
170.34
229.90
270.96
288.32
282.40
259.60
230.08
203.49
184.72
172.17
159.58
140.37
111.60
75.33
36.68
0.54
-30.85
-57.91
-81.50
-100.78
-112.72
-113.54
-101.40
-78.47
-50.62
-25.43
-9.39
-5.57
-13.12
-28.23
-45.88
-61.62
-72.61
-77.93
-78.53
-76.23
-72.45
-67.52
-59.92
-46.64
-23.81
11.79
61.27
122.72
190.99
258.44
316.50
358.05
379.35
380.92
367.04
343.92
317.45
291.25
265.90
239.03
206.61
164.69
111.32
47.95
-20.03
-84.34
-135.99
-167.96
-177.41
-166.03
-138.88
-102.08
-60.46
-16.39
29.93
78.85
129.81
180.49
227.17
265.79
293.17
307.42
307.59
293.22
264.30
221.76
168.36
109.31
51.92
4.21
-27.43
-40.48
-37.46
-25.63
-14.79
-14.43
-30.96
-65.95
-115.96
-173.52
-229.48
-275.37
-305.13
-315.84
-307.39
-281.65
-241.77
-191.81
-136.83
-83.00
-37.33
-6.64
4.04
-6.72
-35.71
-75.66
-117.32
-152.18
-174.99
-184.76
-184.20
-177.93
-170.57
-165.14
-162.66
-162.52
-163.40
-164.18
-164.45
-164.42
-164.77
-166.16
-169.09
-173.69
-179.54
-185.50
-189.63
-189.29
-181.84
-165.55
-140.10
-106.79
-67.80
-25.12
20.15
67.93
118.82
173.61
232.88
296.41
362.62
427.95
487.17
534.60
566.12
580.84
581.25
571.72
556.19
536.44
512.10
482.14
446.85
408.67
371.49
338.63
311.10
287.19
263.64
237.42
207.25
173.80
138.95
104.61
71.66
39.78
7.76
-25.94
-62.96
-104.75
-152.37
-205.58
-261.81
-315.52
-358.62
-382.53
-381.01
-352.31
-299.84
-230.85
-154.20
-77.94
-7.81
53.06
103.87
145.59
180.52
211.71
242.07
273.23
304.68
333.78
356.81
370.47
373.24
365.83
350.58
330.36
307.52
283.48
258.78
233.62
208.38
183.71
160.08
137.08
113.37
86.97
56.27
20.91
-17.79
-57.10
-94.01
-126.41
-153.98
-178.22
-201.76
-227.22
-256.62
-290.99
-330.11
-372.23
-413.73
-448.98
-471.15
-474.18
-454.74
-413.78
-356.15
-288.46
-216.25
-141.82
-64.35
17.78
103.17
186.68
259.44
312.04
338.60
339.22
319.67
288.63
254.10
221.01
190.89
163.33
137.82
114.69
94.62
77.57
62.18
46.26
27.93
6.87
-15.70
-37.72
-57.18
-73.16
-86.11
-97.56
-109.58
-124.15
-142.47
-164.54
-189.19
-214.30
-237.61
-257.68
-274.50
-289.83
-307.00
-330.21
-363.21
-407.57
-460.99
-516.67
-564.66
-594.79
-600.41
-580.99
-542.17
-493.16
-442.82
-396.36
-354.34
-314.18
-272.81
-228.97
-183.68
-139.22
-97.57
-59.28
-23.55
11.01
45.73
81.74
120.07
161.67
206.19
250.66
288.79
312.16
313.15
288.38
241.02
180.32
118.90
68.56
37.38
28.55
41.29
72.32
116.59
167.57
217.45
258.34
284.27
293.10
287.29
272.71
255.96
241.92
232.55
227.74
227.23
232.17
245.03
267.69
298.99
333.62
363.05
378.68
375.21
352.78
316.71
275.02
235.03
200.89
173.12
149.62
127.77
105.94
84.18
63.94
46.85
33.59
23.21
13.06
-0.25
-19.74
-47.28
-83.36
-127.36
-177.87
-232.24
-286.07
-332.70
-364.05
-373.18
-357.63
-321.66
-275.65
-232.27
-201.57
-187.56
-188.06
-198.12
-214.48
-238.25
-273.91
-325.25
-390.77
-461.82
-524.90
-566.83
-580.10
-565.63
-531.39
-488.01
-444.14
-403.74
-366.25
-329.08
-290.42
-250.89
-213.32
-180.78
-154.73
-134.27
-116.57
-98.45
-77.75
-54.00
-28.45
-2.99
20.72
42.09
61.62
80.57
100.36
121.93
145.69
171.79
200.77
233.60
270.96
311.84
352.45
386.55
407.13
409.12
391.39
357.41
313.90
268.66
228.57
198.57
181.81
179.94
193.38
221.04
260.38
307.56
358.14
407.67
451.88
486.68
508.14
513.34
501.19
473.18
432.94
385.09
333.54
280.42
226.15
170.48
114.05
59.18
9.88
-29.41
-55.56
-68.47
-71.66
-71.30
-74.24
-85.29
-105.48
-131.86
-159.10
-182.11
-198.25
-208.24
-215.20
-222.70
-232.79
-244.96
-256.49
-263.66
-263.31
-253.63
-234.59
-207.99
-177.35
-147.91
-126.23
-119.24
-132.52
-167.85
-221.41
-283.88
-342.56
-385.15
-403.59
-396.26
-367.43
-324.75
-276.04
-227.03
-181.14
-140.06
-104.69
-75.31
-50.98
-29.07
-5.72
22.72
57.62
96.79
134.44
162.66
173.52
161.68
126.07
70.64
3.60
-64.38
-122.72
-163.47
-182.96
-181.87
-164.04
-134.36
-96.86
-53.84
-6.23
45.04
97.87
148.64
193.15
228.29
253.33
270.34
283.39
297.01
314.60
337.22
363.34
389.36
410.53
422.32
421.76
407.99
382.40
347.98
308.63
268.39
230.71
197.77
170.00
145.92
123.28
101.02
80.89
67.30
65.16
76.22
96.56
117.16
127.70
121.31
97.62
61.92
21.47
-18.77
-57.97
-97.84
-139.46
-180.86
-216.95
-241.61
-250.44
-242.50
-220.34
-189.10
-155.04
-124.07
-100.63
-86.96
-83.06
-87.13
-96.68
-109.66
-124.74
-141.05
-157.63
-173.41
-187.74
-201.17
-215.43
-232.28
-251.77
-271.12
-285.58
-290.51
-283.72
-266.43
-242.38
-215.53
-188.37
-161.46
-134.55
-108.12
-84.11
-65.26
-53.30
-47.64
-45.14
-41.37
-32.56
-17.25
3.28
25.79
46.72
63.54
75.60
83.89
90.21
95.92
101.15
104.87
105.60
102.56
96.35
88.75
81.88
77.14
74.59
73.31
72.09
70.25
67.88
65.47
63.35
61.34
58.81
55.14
49.97
43.08
33.89
21.22
3.52
-20.34
-50.05
-83.41
-116.60
-145.11
-164.98
-173.34
-168.73
-150.99
-121.52
-83.52
-42.07
-3.51
26.18
43.11
46.85
40.38
28.58
16.22
6.56
1.05
-0.05
2.99
9.52
18.26
27.09
33.70
36.76
36.96
36.79
39.15
45.51
54.59
62.61
65.00
58.63
43.53
23.06
2.73
-11.95
-17.42
-13.41
-3.10
8.04
14.19
11.49
-0.45
-18.18
-35.70
-46.39
-45.04
-28.97
1.86
45.22
97.01
151.60
202.41
243.03
268.81
278.24
273.44
259.27
241.56
225.14
212.64
204.19
197.97
190.83
179.06
159.15
128.99
89.14
43.77
-0.04
-34.38
-53.45
-56.08
-46.47
-32.79
-23.76
-25.23
-38.06
-58.43
-80.48
-99.58
-114.46
-127.05
-140.20
-154.79
-168.28
-175.25
-169.98
-149.43
-115.09
-72.84
-30.92
2.97
24.32
32.98
32.76
29.81
30.54
39.38
57.45
82.35
108.82
130.62
142.52
141.80
128.93
107.19
81.61
57.59
39.53
30.04
29.79
37.92
52.72
72.02
93.36
113.96
130.60
140.02
139.45
127.03
102.11
65.55
19.98
-30.33
-79.87
-122.94
-154.99
-173.70
-179.28
-174.05
-161.01
-142.77
-121.46
-99.12
-78.55
-63.34
-57.17
-62.51
-79.50
-105.71
-136.66
-167.04
-191.81
-207.26
-211.58
-205.14
-190.22
-170.07
-147.94
-126.16
-105.70
-86.44
-67.75
-49.12
-30.36
-11.64
6.62
23.75
38.81
50.58
57.87
60.08
57.48
51.46
44.39
39.10
38.35
44.07
56.70
74.83
95.43
114.63
128.90
136.18
136.45
131.68
124.97
119.39
116.83
117.48
119.85
121.68
121.01
116.87
109.35
99.15
87.17
74.35
61.93
51.74
46.09
46.78
54.07
66.13
79.56
91.05
98.93
103.78
107.50
111.70
116.08
118.45
115.91
106.58
90.76
70.66
49.22
28.64
9.65
-8.31
-26.15
-44.28
-62.40
-80.03
-97.05
-114.10
-132.21
-151.96
-172.78
-192.71
-208.79
-217.97
-217.90
-207.61
-187.73
-160.51
-129.46
-98.72
-72.14
-52.36
-40.09
-34.40
-33.57
-36.37
-42.70
-53.05
-67.11
-82.55
-95.14
-100.27
-95.46
-81.89
-64.11
-47.79
-36.81
-31.56
-29.29
-26.19
-19.82
-10.36
-0.08
8.30
13.08
14.09
12.22
8.46
3.52
-2.14
-7.89
-12.59
-14.80
-13.27
-7.32
2.87
16.46
32.22
48.81
65.02
79.82
92.44
102.42
109.52
113.64
114.56
111.87
105.09
93.94
78.82
60.96
42.15
24.24
8.35
-5.51
-18.30
-31.30
-45.44
-60.70
-76.36
-91.39
-105.04
-117.16
-128.09
-138.31
-148.00
-156.88
-164.17
-168.87
-169.98
-166.73
-158.68
-145.74
-128.14
-106.46
-81.64
-54.88
-27.55
-0.84
24.35
47.53
68.49
87.10
103.18
116.51
126.93
134.37
138.89
140.47
138.98
134.29
126.43
115.89
103.50
90.35
77.47
65.54
54.83
45.28
36.59
28.36
20.30
12.39
5.08
-0.88
-4.67
-5.90
-4.87
-2.59
-0.49
0.20
-1.17
-4.47
-8.90
-13.37
-16.85
-18.64
-18.31
-15.73
-10.96
-4.32
3.47
11.37
18.16
22.68
24.12
22.24
17.38
10.40
2.34
-5.87
-13.67
-21.12
-28.72
-37.31
-47.59
-59.77
-73.32
-87.19
-100.23
-111.68
-121.62
-130.76
-140.00
-149.94
-160.58
-171.43
-181.92
-191.83
-201.25
-210.43
-219.29
-227.26
-233.51
-237.40
-238.99
-239.16
-239.49
-241.76
-247.28
-256.36
-268.02
-280.00
-289.11
-291.78
-284.83
-266.18
-235.37
-193.59
-143.44
-88.57
-33.18
18.54
63.16
98.99
126.76
149.39
170.55
192.42
214.07
231.62
240.57
238.88
229.02
217.43
211.52
215.85
230.03
249.62
269.33
286.35
301.59
318.27
339.14
364.47
391.99
418.63
442.51
463.61
482.93
500.77
515.76
524.93
525.08
514.46
493.83
466.48
437.19
410.76
390.69
378.38
372.86
371.28
369.71
364.23
351.80
330.92
301.82
266.21
226.83
186.62
148.04
112.48
80.14
50.36
22.17
-5.27
-32.47
-59.71
-86.96
-113.66
-138.43
-159.05
-173.10
-178.90
-176.54
-168.15
-157.37
-148.15
-143.43
-144.62
-151.88
-164.72
-182.74
-205.56
-232.31
-260.88
-287.77
-308.83
-320.98
-323.79
-320.40
-316.71
-318.90
-330.51
-350.43
-373.27
-391.60
-399.32
-394.06
-377.83
-355.49
-332.46
-312.81
-298.58
-290.10
-286.61
-286.52
-287.29
-285.80
-279.16
-265.83
-246.56
-224.15
-202.42
-184.69
-172.74
-166.46
-164.36
-164.26
-163.95
-161.70
-156.39
-147.95
-137.89
-129.28
-125.95
-130.78
-143.87
-161.49
-176.78
-182.14
-172.12
-145.78
-107.01
-62.94
-21.17
13.02
38.23
56.64
72.56
90.48
113.46
142.37
175.84
210.74
243.10
269.44
287.94
298.94
304.79
309.08
315.50
326.76
343.57
363.98
383.27
395.09
393.76
376.78
346.68
310.74
278.64
258.66
254.36
263.36
278.50
291.20
294.77
286.16
265.79
235.90
198.56
154.76
105.11
51.68
-0.22
-42.08
-65.07
-64.21
-41.76
-7.22
26.40
48.40
54.90
49.36
39.07
30.03
23.03
13.68
-4.11
-33.66
-72.85
-114.94
-152.00
-178.73
-194.45
-202.43
-207.56
-213.38
-220.22
-225.11
-223.34
-210.72
-185.70
-149.79
-106.84
-61.40
-17.20
23.11
57.00
81.00
90.68
82.46
56.58
19.56
-15.93
-34.82
-25.81
13.17
73.13
137.12
186.75
208.70
198.25
158.65
98.08
26.39
-46.67
-111.65
-159.73
-183.84
-180.90
-153.65
-110.78
-64.71
-28.01
-9.59
-12.63
-34.57
-68.78
-106.81
-140.79
-165.30
-178.38
-181.55
-178.54
-173.39
-168.36
-163.19
-155.77
-143.93
-127.31
-108.08
-90.12
-76.84
-69.09
-64.28
-57.51
-43.95
-21.44
8.27
40.18
68.31
88.36
99.30
103.36
104.64
107.09
113.01
122.63
134.77
147.80
160.53
172.41
183.33
193.19
201.73
208.42
212.61
213.79
211.66
206.16
197.32
185.02
168.83
148.19
122.80
93.30
61.57
30.39
2.54
-20.24
-38.11
-53.01
-67.90
-85.39
-106.77
-131.49
-157.43
-181.67
-201.24
-213.95
-218.80
-216.13
-207.41
-194.72
-179.98
-164.41
-148.25
-130.89
-111.42
-89.06
-63.56
-35.42
-6.07
22.00
45.45
60.72
65.21
58.54
43.41
25.14
10.14
3.62
7.84
21.52
40.88
61.42
79.65
93.94
104.31
111.55
116.33
118.89
119.16
117.28
113.92
110.17
107.01
104.67
102.32
98.36
91.37
81.09
69.00
57.76
49.93
46.37
45.40
43.29
35.90
20.62
-2.37
-30.29
-58.99
-84.64
-104.71
-118.18
-124.81
-124.50
-117.22
-103.40
-84.52
-63.15
-42.32
-24.50
-10.71
-0.56
7.25
13.94
20.18
25.98
31.10
35.47
39.19
42.35
44.76
46.00
45.69
43.78
40.68
36.92
32.60
27.14
19.37
8.10
-7.03
-25.13
-44.06
-61.06
-73.60
-80.23
-81.07
-77.65
-72.33
-67.31
-63.93
-62.49
-62.49
-63.37
-64.84
-66.94
-69.62
-72.22
-73.34
-71.25
-64.73
-53.81
-40.11
-26.27
-15.01
-8.00
-5.25
-5.33
-6.21
-6.27
-4.98
-3.06
-1.85
-2.51
-5.34
-9.63
-14.05
-17.30
-18.77
-18.61
-17.56
-16.31
-15.13
-13.84
-12.06
-9.75
-7.38
-5.82
-5.81
-7.52
-10.21
-12.50
-12.97
-10.77
-5.95
0.62
7.77
14.53
20.31
24.99
28.67
31.53
33.72
35.29
36.17
36.14
34.89
32.28
28.53
24.34
20.68
18.40
17.70
17.99
18.22
17.36
15.03
11.57
7.79
4.27
1.07
-2.36
-6.70
-12.30
-18.97
-25.98
-32.51
-37.99
-42.27
-45.47
-47.71
-48.74
-47.99
-44.75
-38.60
-29.77
-19.22
-8.40
1.27
9.02
14.85
19.29
22.94
25.95
27.92
28.31
26.86
23.86
20.05
16.14
12.37
8.50
4.01
-1.55
-8.36
-16.45
-25.81
-36.30
-47.51
-58.58
-68.49
-76.52
-82.78
-88.16
-93.73
-100.00
-106.34
-111.47
-114.39
-115.27
-115.41
-116.20
-117.90
-119.00
-116.90
-109.49
-96.45
-79.40
-60.79
-42.33
-24.23
-5.52
14.66
36.08
57.30
76.53
92.55
105.15
114.66
121.26
124.64
124.49
121.13
115.97
110.97
107.82
107.22
108.78
111.60
114.97
118.76
123.06
127.72
131.88
134.01
132.35
125.51
113.11
95.96
75.95
55.45
36.56
20.42
7.12
-3.92
-13.25
-20.77
-25.76
-27.57
-26.41
-23.76
-22.02
-23.46
-29.10
-38.23
-48.66
-57.61
-62.90
-63.53
-59.96
-53.75
-47.00
-41.66
-38.89
-38.62
-39.67
-40.22
-38.60
-33.99
-26.74
-18.26
-10.53
-5.36
-3.76
-5.51
-9.22
-12.67
-13.60
-10.52
-3.26
6.96
18.14
28.25
36.10
41.47
44.68
45.83
44.42
39.59
31.03
19.75
8.33
0.13
-2.26
1.71
10.21
19.91
27.60
31.42
31.21
27.79
21.94
13.91
3.69
-8.25
-20.38
-30.32
-35.77
-35.60
-30.35
-21.99
-12.84
-4.59
2.26
8.13
13.61
18.80
23.06
25.40
25.16
22.54
18.55
14.57
11.68
10.26
9.99
10.19
10.12
9.25
7.26
4.04
-0.29
-5.31
-10.47
-15.17
-19.06
-22.03
-24.04
-24.83
-23.97
-21.22
-17.16
-13.38
-12.06
-14.99
-22.70
-33.99
-46.52
-57.90
-66.60
-72.41
-76.08
-78.39
-79.67
-79.46
-76.87
-71.11
-61.80
-49.09
-33.41
-15.23
5.04
26.88
49.26
70.48
88.23
100.42
106.10
105.96
102.32
98.08
95.36
94.59
94.52
93.32
90.17
86.02
83.32
84.65
91.21
102.06
114.66
126.02
133.72
136.26
132.65
121.93
103.34
77.22
45.76
13.10
-16.04
-38.48
-54.24
-66.46
-79.52
-96.41
-116.99
-138.21
-156.08
-167.92
-173.56
-174.67
-173.11
-169.55
-163.31
-153.52
-140.45
-125.80
-111.75
-99.41
-87.95
-75.14
-58.94
-39.04
-17.35
2.91
18.90
29.50
35.52
38.85
41.20
43.15
44.23
43.65
41.14
37.26
33.16
29.82
27.77
27.05
27.59
29.55
33.25
38.70
45.18
51.09
54.46
53.73
48.54
39.94
29.89
20.51
13.25
8.56
5.99
4.49
2.99
0.89
-1.60
-3.42
-3.00
1.06
9.34
21.20
34.96
48.53
59.96
68.03
72.22
72.64
69.74
64.25
57.12
49.41
42.09
35.71
30.35
25.70
21.35
17.01
12.48
7.49
1.69
-5.28
-13.54
-22.79
-32.30
-41.27
-49.13
-55.82
-61.84
-68.03
-75.40
-84.68
-95.94
-108.12
-119.16
-126.49
-128.07
-123.20
-112.74
-98.55
-82.54
-65.90
-49.08
-32.38
-16.68
-3.73
4.37
6.13
1.56
-7.72
-18.97
-29.31
-36.61
-39.81
-38.76
-33.78
-25.33
-13.94
-0.31
14.45
28.82
41.13
50.05
55.00
56.23
54.54
50.81
45.67
39.49
32.58
25.46
18.90
13.56
9.59
6.32
2.42
-3.67
-13.10
-26.10
-41.68
-57.84
-72.11
-82.28
-87.10
-86.58
-81.95
-74.96
-67.11
-59.12
-50.84
-41.87
-32.16
-22.52
-14.27
-8.48
-5.19
-3.20
-0.69
3.61
9.62
15.91
20.50
22.10
20.81
17.92
15.15
13.59
13.24
13.27
12.66
10.82
7.87
4.36
0.82
-2.41
-5.25
-7.65
-9.36
-9.94
-8.93
-6.18
-2.13
2.27
5.93
8.17
9.05
9.37
10.23
12.35
15.78
19.97
24.17
27.96
31.12
33.45
34.31
32.69
27.73
19.55
9.60
0.32
-5.84
-7.48
-4.67
1.41
9.23
17.67
26.14
34.31
41.59
47.04
49.70
49.15
45.85
41.08
36.33
32.72
30.63
29.79
29.77
30.39
31.94
35.03
40.07
46.77
53.97
60.00
63.35
63.39
60.53
55.93
50.73
45.40
39.48
31.89
21.40
7.31
-10.25
-30.15
-50.54
-69.16
-83.90
-93.25
-96.67
-94.72
-89.02
-81.81
-75.33
-71.24
-69.77
-69.50
-67.52
-60.55
-46.49
-25.77
-1.64
21.02
37.89
47.42
51.57
54.70
61.21
73.26
89.95
108.11
124.21
135.93
142.67
144.79
142.63
136.11
125.18
110.52
93.94
77.65
63.17
50.38
37.68
23.09
5.67
-13.73
-32.86
-49.13
-60.74
-67.19
-69.04
-67.30
-62.99
-57.02
-50.35
-44.09
-39.23
-36.36
-35.47
-36.06
-37.39
-38.93
-40.45
-42.05
-43.87
-45.91
-47.87
-49.17
-49.08
-46.99
-42.68
-36.44
-29.05
-21.59
-15.15
-10.59
-8.29
-8.04
-9.09
-10.37
-10.87
-10.11
-8.43
-6.87
-6.69
-8.65
-12.57
-17.39
-21.89
-25.47
-28.52
-32.24
-37.84
-45.82
-55.54
-65.57
-74.33
-80.81
-84.80
-86.59
-86.49
-84.53
-80.34
-73.47
-63.77
-51.52
-37.46
-22.48
-7.50
6.70
19.51
30.54
39.57
46.60
51.84
55.63
58.40
60.75
63.51
67.66
74.15
83.40
94.90
107.25
118.62
127.42
132.95
135.50
135.90
134.95
132.87
129.31
123.66
115.57
105.25
93.45
81.19
69.38
58.58
48.86
39.91
31.38
23.04
15.02
7.81
2.03
-1.74
-3.06
-1.74
2.19
8.46
16.32
24.60
31.97
37.43
40.73
42.54
44.06
46.35
49.91
54.50
59.55
64.61
69.47
73.85
77.16
78.44
76.89
72.53
66.44
60.51
56.49
55.15
55.97
57.56
58.50
58.08
56.61
55.03
54.40
55.42
58.21
62.50
67.77
73.46
79.08
84.20
88.38
91.25
92.50
91.96
89.69
85.90
80.80
74.42
66.50
56.59
44.45
30.18
14.38
-2.08
-18.38
-33.87
-48.22
-61.23
-72.74
-82.53
-90.25
-95.53
-98.06
-97.76
-95.05
-90.77
-86.02
-81.51
-76.98
-71.18
-62.50
-49.93
-33.97
-16.70
-1.05
10.47
16.57
17.27
13.21
4.89
-7.59
-24.19
-44.07
-65.28
-85.01
-100.51
-110.11
-113.76
-112.97
-110.12
-107.61
-107.03
-108.67
-111.52
-113.68
-113.02
-108.05
-98.51
-85.56
-71.43
-58.66
-49.19
-43.82
-42.15
-43.07
-45.34
-48.17
-51.24
-54.52
-57.86
-60.87
-63.08
-64.20
-64.27
-63.63
-62.51
-60.85
-58.31
-54.75
-50.50
-46.51
-43.87
-43.20
-44.23
-45.82
-46.63
-45.82
-43.52
-40.80
-39.14
-39.89
-43.85
-51.10
-61.07
-72.62
-84.29
-94.62
-102.57
-107.91
-111.25
-113.91
-117.29
-122.11
-127.69
-131.68
-130.37
-119.71
-96.71
-60.88
-14.83
36.08
85.15
126.25
155.43
171.61
176.15
171.72
161.09
146.55
129.89
112.70
96.47
82.38
70.87
61.54
53.51
46.08
39.47
34.82
33.66
37.05
44.96
56.09
68.41
79.94
89.26
95.74
99.24
99.77
97.27
91.71
83.32
72.84
61.42
50.27
40.26
31.65
24.00
16.48
8.17
-1.62
-13.23
-26.50
-40.86
-55.41
-69.05
-80.78
-90.02
-96.82
-101.80
-105.89
-109.99
-114.69
-120.18
-126.30
-132.66
-138.73
-143.91
-147.63
-149.40
-148.91
-146.05
-140.99
-134.24
-126.65
-119.23
-112.92
-108.23
-104.91
-102.05
-98.39
-93.05
-86.07
-78.56
-72.13
-68.01
-66.11
-64.88
-61.90
-55.15
-44.10
-30.09
-15.76
-3.84
4.03
7.83
9.03
9.65
11.54
15.92
23.38
34.01
47.46
62.80
78.47
92.48
103.04
109.15
111.13
110.44
109.12
108.99
110.93
114.70
119.06
122.35
123.00
119.97
113.03
102.77
90.57
78.33
67.82
60.08
54.98
51.30
47.43
42.37
36.23
30.10
25.16
21.93
19.88
17.98
15.56
12.86
10.86
10.41
11.30
12.13
11.02
6.87
0.19
-7.11
-12.79
-15.63
-16.09
-15.83
-16.49
-18.52
-20.62
-20.46
-15.87
-5.94
8.72
26.38
45.19
63.74
81.23
97.12
110.86
121.93
130.09
135.75
139.79
143.04
145.66
146.81
145.06
139.15
128.68
114.32
97.51
79.70
61.84
44.18
26.23
7.17
-13.90
-37.76
-64.62
-93.60
-122.35
-147.00
-163.23
-167.83
-160.10
-142.44
-119.45
-96.10
-76.19
-61.73
-53.45
-51.78
-57.30
-70.23
-89.48
-112.04
-133.45
-149.34
-156.92
-155.69
-146.99
-132.72
-114.21
-92.08
-66.67
-38.68
-9.50
19.14
45.86
70.01
91.66
111.20
128.73
143.73
155.15
161.92
163.59
160.88
155.47
149.50
144.52
140.51
135.75
127.44
112.98
91.13
62.60
29.69
-4.62
-37.64
-67.55
-93.34
-114.48
-130.67
-141.76
-147.92
-149.84
-148.80
-146.31
-143.80
-142.31
-142.31
-143.75
-146.13
-148.61
-150.23
-150.21
-148.09
-144.01
-138.50
-132.36
-126.24
-120.35
-114.28
-107.04
-97.18
-83.36
-64.95
-42.58
-18.35
4.58
22.89
34.25
38.19
36.20
31.16
26.18
23.74
25.28
31.18
41.08
54.02
68.48
82.44
93.73
100.56
102.23
99.44
94.11
88.64
85.07
84.56
87.32
93.17
101.79
112.72
124.81
135.89
142.89
142.65
133.14
114.33
88.20
57.93
26.85
-2.41
-27.92
-48.10
-61.31
-65.93
-60.99
-46.85
-25.48
-0.12
25.66
48.93
68.22
83.70
96.76
109.18
122.16
135.67
148.50
159.00
165.93
169.15
169.42
167.72
164.26
158.01
146.93
128.94
103.01
70.19
33.88
-0.81
-28.25
-43.71
-44.39
-29.86
-1.81
36.60
81.35
127.90
171.42
207.07
230.74
239.92
234.56
217.03
191.27
161.25
129.59
96.77
61.67
22.98
-18.87
-60.67
-96.70
-120.60
-128.19
-119.84
-101.10
-80.93
-68.32
-68.75
-82.54
-105.73
-132.93
-160.32
-187.07
-214.76
-245.54
-280.26
-317.54
-353.95
-384.86
-405.54
-412.20
-402.87
-378.00
-340.49
-294.93
-246.09
-197.19
-148.86
-99.34
-46.08
12.08
73.11
131.27
178.47
206.87
211.73
193.43
157.52
113.01
69.49
34.24
10.69
-1.77
-6.71
-9.17
-14.32
-26.28
-47.13
-76.11
-109.59
-141.92
-167.27
-181.45
-182.95
-172.66
-152.80
-125.90
-94.51
-61.62
-31.04
-7.06
6.80
9.29
2.31
-9.53
-20.47
-25.67
-22.69
-11.69
5.30
25.68
47.17
68.12
87.35
103.89
117.01
126.64
133.59
139.45
145.86
153.50
161.33
166.78
166.81
159.71
146.37
130.46
117.06
110.55
112.83
122.55
135.99
148.77
157.64
161.42
160.86
157.58
153.17
148.67
144.79
142.31
142.20
145.09
150.43
156.15
158.82
154.70
140.92
116.19
80.71
35.60
-17.31
-75.13
-133.08
-184.22
-220.32
-233.81
-220.13
-179.40
-116.78
-41.48
35.20
102.04
149.81
172.97
170.53
145.93
105.97
58.55
10.22
-35.66
-79.14
-122.35
-167.35
-214.39
-261.30
-303.77
-336.64
-354.90
-354.71
-334.09
-293.58
-236.92
-171.24
-106.43
-52.85
-18.20
-4.43
-6.43
-13.59
-13.58
2.92
38.88
90.42
149.10
205.33
251.63
283.90
300.85
302.76
290.35
264.69
227.82
183.11
134.93
87.56
43.66
3.13
-36.63
-79.29
-127.21
-179.39
-231.00
-274.72
-303.54
-313.42
-304.84
-282.12
-251.51
-218.96
-188.58
-162.30
-140.11
-120.63
-101.51
-80.05
-53.82
-21.77
15.24
54.45
92.10
124.65
149.87
167.50
179.45
189.27
200.93
217.44
239.43
264.69
289.04
308.12
319.21
322.05
318.21
309.49
296.72
279.32
256.31
227.68
195.08
161.46
129.61
100.77
74.04
46.71
15.42
-22.59
-68.30
-120.17
-173.88
-222.90
-259.79
-278.39
-276.13
-255.81
-225.56
-196.66
-179.75
-180.70
-198.19
-224.65
-249.86
-265.66
-269.19
-263.12
-252.83
-242.52
-233.02
-222.38
-208.36
-190.93
-172.64
-156.83
-145.54
-138.33
-133.52
-130.05
-128.33
-129.26
-132.47
-135.42
-134.35
-126.59
-112.04
-93.00
-72.08
-50.29
-26.60
0.47
30.55
60.56
86.24
104.90
117.22
126.87
137.90
151.67
165.59
174.53
174.01
163.26
146.21
129.92
121.48
125.05
140.35
163.65
189.70
213.55
231.11
238.67
232.48
209.53
169.47
116.42
59.09
8.15
-27.92
-46.54
-52.03
-53.33
-59.55
-76.03
-102.66
-135.11
-167.57
-195.23
-215.40
-227.03
-229.76
-223.19
-206.87
-180.81
-145.90
-104.03
-58.06
-11.65
30.93
65.33
87.87
96.55
91.83
76.55
55.16
32.27
11.32
-6.07
-20.09
-32.35
-45.31
-61.74
-84.08
-113.78
-150.51
-191.62
-232.16
-265.78
-286.37
-289.87
-275.57
-246.38
-207.70
-165.63
-124.95
-87.83
-53.50
-18.94
19.60
64.64
115.96
169.99
220.69
261.49
287.48
296.98
291.92
276.90
257.64
239.48
226.33
219.97
219.80
222.78
224.12
218.72
203.20
177.45
144.98
111.17
80.68
55.04
32.39
9.05
-17.69
-47.60
-77.46
-102.84
-120.69
-130.98
-136.31
-139.99
-143.78
-146.71
-145.66
-137.38
-120.62
-97.09
-70.81
-46.14
-25.75
-9.60
4.60
19.67
37.20
56.66
75.77
91.84
103.21
109.92
113.54
116.23
119.64
124.13
128.59
130.70
127.67
117.08
97.72
70.17
36.70
0.75
-34.14
-65.16
-90.79
-110.73
-125.42
-135.55
-141.75
-144.74
-145.67
-146.26
-148.67
-154.93
-166.20
-182.23
-201.21
-220.33
-236.65
-247.99
-253.43
-253.01
-247.18
-236.16
-219.81
-197.96
-170.84
-139.36
-104.98
-69.30
-33.72
0.75
33.56
64.26
92.45
117.61
139.32
157.40
171.94
183.18
191.32
196.37
198.12
196.23
190.42
180.69
167.39
151.44
134.18
117.16
101.77
88.89
78.78
71.09
65.08
59.90
54.74
49.05
42.50
35.05
26.84
18.21
9.56
1.22
-6.63
-14.10
-21.32
-28.17
-34.20
-38.58
-40.42
-39.04
-34.15
-25.84
-14.55
-1.04
13.67
28.35
41.73
52.66
60.42
64.79
66.10
65.07
62.58
59.46
56.29
53.27
50.22
46.64
42.01
36.09
29.11
21.79
14.99
9.37
5.10
1.77
-1.39
-5.06
-9.47
-14.32
-18.91
-22.55
-24.90
-26.06
-26.50
-26.89
-27.83
-29.71
-32.57
-35.92
-38.71
-39.50
-36.91
-30.12
-19.36
-5.87
8.52
21.99
33.29
41.89
47.78
51.20
52.46
51.99
50.51
48.98
48.36
49.33
51.99
55.89
60.28
64.34
67.51
69.50
70.38
70.46
70.25
70.36
71.26
73.15
75.82
78.68
80.97
82.09
81.74
79.96
76.97
72.93
67.92
62.02
55.33
48.10
40.61
33.13
25.92
19.29
13.75
9.95
8.45
9.32
11.89
14.98
17.35
18.28
17.93
17.01
16.48
16.90
18.40
20.77
23.79
27.23
30.87
34.23
36.57
37.11
35.31
31.14
25.00
17.59
9.55
1.46
-6.24
-13.23
-19.41
-25.01
-30.44
-36.05
-41.83
-47.37
-52.22
-56.30
-60.23
-65.11
-72.05
-81.57
-93.36
-106.45
-119.70
-132.16
-143.20
-152.22
-158.50
-161.23
-159.85
-154.45
-145.87
-135.56
-125.03
-115.44
-107.33
-100.48
-94.08
-86.90
-77.68
-65.64
-50.76
-33.89
-16.42
0.28
15.32
28.53
40.10
50.20
58.61
64.85
68.71
70.73
72.33
75.40
81.38
90.45
101.11
110.63
115.89
114.52
105.79
90.96
72.90
55.19
40.89
31.69
27.51
26.90
27.89
28.75
28.52
26.92
24.01
19.79
14.19
7.29
-0.24
-7.06
-11.49
-12.19
-8.87
-2.44
5.31
12.50
17.95
21.51
23.88
26.16
29.27
33.67
39.37
46.03
53.04
59.48
64.14
65.71
63.17
56.29
45.79
33.27
20.80
10.15
2.17
-3.68
-9.28
-17.23
-29.83
-48.06
-71.10
-96.66
-121.86
-144.23
-162.30
-175.59
-184.17
-188.40
-188.90
-186.77
-183.64
-181.17
-180.33
-180.65
-180.12
-175.86
-165.19
-146.71
-120.73
-89.14
-54.65
-20.00
12.67
42.05
67.60
89.31
107.48
122.53
134.85
144.60
151.58
155.16
154.42
148.72
138.15
123.97
108.29
93.26
80.19
69.03
58.84
48.87
39.49
32.25
28.82
29.52
32.42
33.94
30.61
21.17
7.45
-6.37
-16.00
-19.32
-17.49
-14.31
-14.19
-20.04
-32.01
-47.57
-62.85
-74.27
-79.85
-79.55
-74.83
-67.55
-58.77
-48.35
-35.26
-18.68
0.97
21.70
40.78
56.05
67.02
75.08
82.57
91.22
101.07
110.31
116.21
116.50
110.60
100.10
88.23
78.63
74.00
75.06
80.29
86.40
89.47
86.15
74.52
54.32
26.69
-6.37
-42.33
-78.44
-111.90
-140.29
-162.03
-176.62
-184.54
-186.90
-184.71
-178.67
-169.32
-157.39
-144.01
-130.68
-118.69
-108.74
-100.73
-93.98
-87.77
-81.66
-75.61
-69.75
-64.32
-59.57
-55.80
-53.37
-52.37
-52.31
-51.91
-49.42
-43.15
-32.15
-16.46
3.16
25.89
51.24
79.07
108.95
139.54
168.23
191.53
206.16
210.20
203.80
189.14
169.45
147.80
126.00
104.14
81.09
55.30
25.67
-7.96
-44.91
-84.13
-124.37
-164.04
-201.02
-232.47
-255.39
-267.43
-267.85
-257.64
-239.00
-214.17
-184.42
-149.77
-109.58
-63.69
-13.44
38.06
86.61
128.13
160.09
182.23
196.39
205.51
212.08
217.03
219.43
217.23
208.74
193.83
174.33
153.14
132.86
114.59
97.74
80.90
63.23
45.44
29.68
18.30
12.25
10.10
8.42
3.29
-7.72
-24.44
-44.31
-63.72
-79.64
-90.55
-96.51
-98.47
-97.68
-95.38
-93.02
-92.15
-94.12
-99.26
-106.17
-111.82
-112.50
-105.39
-89.84
-67.85
-43.21
-19.93
-0.78
13.45
23.43
30.19
34.07
34.58
30.93
23.05
12.22
0.80
-8.68
-14.56
-16.53
-15.40
-12.30
-8.06
-2.84
3.61
11.49
20.64
30.41
39.64
46.85
50.69
50.57
47.22
42.88
40.69
43.46
52.27
65.78
80.63
92.87
99.70
100.63
97.57
93.61
91.62
92.83
96.59
100.86
103.48
103.25
100.37
96.01
91.26
86.16
79.44
69.20
54.06
34.23
11.73
-10.17
-27.99
-39.01
-41.60
-35.26
-20.34
1.85
28.82
56.87
81.54
98.79
106.26
104.02
94.33
80.55
65.83
52.22
40.61
31.16
24.15
20.16
20.00
24.10
31.81
41.22
49.36
52.80
48.55
34.74
11.19
-20.44
-56.94
-94.22
-128.12
-155.08
-172.51
-178.96
-174.20
-159.52
-137.83
-113.45
-91.37
-75.85
-69.28
-71.39
-79.64
-90.43
-100.63
-108.95
-116.16
-124.40
-135.77
-151.15
-169.71
-189.34
-207.58
-222.38
-232.28
-236.31
-234.04
-226.06
-214.54
-203.16
-195.83
-194.83
-199.09
-204.14
-203.63
-192.01
-166.83
-129.61
-85.05
-39.07
3.06
37.80
63.51
80.09
88.45
90.36
88.26
85.04
83.54
85.89
92.82
103.31
114.77
123.94
127.92
124.99
114.77
97.98
76.00
50.58
23.81
-2.29
-26.34
-48.28
-69.22
-90.54
-112.49
-133.26
-149.38
-156.91
-153.38
-138.89
-115.59
-86.28
-52.90
-16.17
23.40
64.13
102.51
133.78
153.69
160.16
154.14
139.17
120.03
101.06
85.07
72.80
63.24
54.49
44.92
34.01
22.81
13.49
8.27
8.15
12.32
18.44
23.88
27.12
28.12
28.06
28.30
29.60
31.78
34.19
36.20
37.75
39.30
41.41
44.12
46.60
47.13
43.67
34.57
19.36
-1.16
-25.16
-50.63
-76.19
-101.41
-126.70
-152.69
-179.58
-206.73
-232.85
-256.41
-276.20
-291.39
-301.30
-305.04
-301.31
-288.80
-266.68
-235.21
-195.81
-150.58
-101.55
-50.39
1.61
52.99
101.92
146.30
184.52
216.09
241.75
262.91
280.83
296.05
308.50
317.84
323.80
326.20
324.69
318.75
308.01
293.03
275.81
259.71
248.54
245.30
251.07
264.61
282.67
300.91
314.99
321.56
318.89
307.16
288.33
265.54
242.08
220.50
202.04
186.57
173.06
160.26
147.16
133.27
118.50
102.99
87.00
70.93
55.25
40.46
26.92
14.73
3.74
-6.36
-15.92
-25.19
-34.34
-43.43
-52.46
-61.41
-70.28
-79.02
-87.47
-95.41
-102.58
-108.89
-114.71
-120.89
-128.43
-137.98
-149.17
-160.54
-170.00
-175.67
-176.70
-173.60
-168.07
-162.24
-158.08
-156.92
-159.21
-164.51
-171.49
-178.11
-182.07
-181.63
-176.44
-167.94
-158.99
-152.80
-151.62
-155.73
-163.38
-171.56
-177.07
-177.55
-171.98
-160.70
-145.26
-128.03
-111.72
-98.93
-91.50
-89.99
-93.56
-100.28
-107.75
-113.72
-116.61
-115.54
-110.42
-101.83
-90.90
-79.20
-68.41
-59.85
-54.01
-50.50
-48.23
-45.93
-42.67
-38.08
-32.39
-26.19
-20.23
-15.26
-11.89
-10.51
-11.21
-13.67
-17.17
-20.79
-23.55
-24.62
-23.54
-20.38
-15.78
-10.87
-6.95
-5.04
-5.44
-7.42
-9.36
-9.17
-4.89
4.74
19.96
40.04
63.54
88.67
113.51
136.15
154.79
167.97
174.82
175.30
170.21
160.98
149.20
136.37
123.67
112.15
102.79
96.50
93.88
94.88
98.59
103.52
107.96
110.63
111.10
109.86
108.13
107.42
109.04
113.48
120.12
127.16
131.87
131.37
123.70
108.68
88.03
64.49
40.34
16.21
-8.90
-36.47
-66.91
-98.86
-129.85
-157.91
-182.90
-206.22
-229.24
-251.14
-267.95
-273.69
-263.08
-234.23
-189.69
-135.16
-77.03
-20.32
31.72
76.66
111.88
134.44
142.16
135.16
116.03
88.55
55.54
17.61
-26.08
-75.47
-127.03
-173.17
-204.44
-213.12
-196.50
-157.70
-104.01
-43.64
16.93
74.08
126.37
173.30
214.43
249.21
277.48
299.66
316.68
329.48
338.41
342.98
341.88
333.31
315.61
288.01
250.85
205.60
154.26
98.62
39.99
-20.66
-81.75
-140.57
-193.15
-234.95
-262.19
-273.25
-269.46
-254.67
-234.22
-213.49
-196.78
-186.54
-183.39
-186.68
-195.19
-208.01
-224.67
-244.88
-267.59
-290.40
-309.63
-321.29
-322.59
-313.06
-294.56
-270.36
-243.52
-215.55
-186.09
-153.42
-115.44
-70.80
-19.19
38.49
99.89
161.17
217.41
263.73
297.03
317.33
327.88
333.66
338.91
344.91
349.20
346.66
332.01
302.28
258.14
203.42
143.80
84.87
31.07
-14.89
-51.78
-79.72
-99.92
-114.56
-125.91
-135.27
-142.47
-146.06
-144.60
-138.41
-130.18
-123.77
-121.96
-124.23
-126.49
-123.10
-110.01
-87.06
-57.97
-27.98
-0.73
23.60
47.57
74.08
103.90
135.03
164.31
189.69
211.88
233.95
259.20
288.80
320.51
349.23
369.23
376.46
370.03
352.10
326.49
297.02
266.34
235.81
206.02
177.65
151.84
129.97
113.18
101.63
94.16
88.33
81.14
69.97
53.62
32.75
9.68
-12.53
-31.25
-45.26
-55.21
-63.18
-71.93
-83.78
-100.00
-120.55
-144.28
-169.72
-195.75
-222.04
-248.89
-276.39
-303.36
-326.73
-341.89
-344.08
-330.34
-300.95
-259.78
-213.05
-167.24
-126.97
-93.90
-67.09
-44.12
-22.53
-0.33
23.56
49.14
74.90
97.35
111.29
111.05
92.51
55.15
3.00
-56.12
-112.77
-158.70
-189.03
-202.96
-203.21
-194.30
-180.91
-166.58
-153.26
-141.41
-130.75
-120.92
-111.84
-103.64
-96.20
-89.00
-81.04
-71.25
-59.02
-44.34
-27.93
-10.71
6.57
23.64
40.70
58.08
75.74
92.87
107.98
119.31
125.69
127.05
124.60
120.17
115.27
110.45
105.04
97.79
87.83
75.26
61.21
47.28
34.67
23.69
13.73
3.78
-6.80
-17.80
-28.14
-36.25
-40.67
-40.64
-36.18
-28.02
-17.15
-4.53
9.09
23.00
36.37
48.20
57.36
62.97
64.66
62.84
58.54
53.08
47.68
43.08
39.48
36.64
34.15
31.74
29.37
27.17
25.32
23.96
23.06
22.56
22.48
22.91
23.96
25.59
27.51
29.27
30.39
30.60
29.97
28.71
27.08
25.18
22.90
20.08
16.64
12.72
8.70
5.13
2.59
1.56
2.24
4.46
7.65
11.08
14.06
16.04
16.61
15.15
10.72
2.20
-11.17
-29.24
-50.49
-72.28
-91.52
-105.58
-113.06
-114.03
-109.80
-102.20
-92.96
-83.19
-73.40
-63.66
-54.09
-45.19
-37.70
-32.29
-29.09
-27.40
-25.97
-23.52
-19.45
-14.06
-8.49
-4.07
-1.80
-1.99
-4.19
-7.50
-10.84
-13.12
-13.53
-11.68
-7.81
-2.76
2.28
6.07
7.89
7.64
5.87
3.33
0.64
-1.90
-4.35
-6.82
-9.23
-11.31
-12.65
-12.99
-12.27
-10.68
-8.47
-5.84
-2.87
0.45
4.09
7.95
11.73
14.94
17.01
17.31
15.45
11.41
5.74
-0.53
-6.20
-10.30
-12.58
-13.46
-13.89
-14.90
-17.29
-21.38
-27.02
-33.48
-39.52
-43.54
-43.96
-39.80
-31.10
-19.06
-5.67
7.13
18.07
26.90
34.12
40.36
45.91
50.57
53.92
55.71
56.06
55.43
54.31
52.95
51.32
49.28
46.82
44.26
42.20
41.19
41.48
42.81
44.50
45.73
45.88
44.73
42.47
39.43
35.85
31.79
27.06
21.47
14.89
7.37
-0.84
-9.22
-16.97
-23.01
-26.16
-25.51
-20.78
-12.41
-1.57
10.28
21.82
32.24
41.21
48.76
54.88
59.31
61.59
61.13
57.57
51.02
42.16
32.14
22.28
13.73
7.18
2.83
0.49
-0.28
0.06
1.05
2.27
3.26
3.65
3.22
2.01
0.23
-1.78
-3.75
-5.59
-7.36
-9.10
-10.81
-12.34
-13.60
-14.66
-15.85
-17.62
-20.37
-24.16
-28.69
-33.38
-37.62
-40.87
-42.71
-42.76
-40.72
-36.43
-30.07
-22.22
-13.79
-5.66
1.54
7.58
12.50
16.38
19.10
20.33
19.66
16.92
12.40
6.94
1.81
-1.62
-2.33
0.01
4.86
11.03
17.19
22.39
26.47
29.96
33.65
38.04
42.93
47.49
50.63
51.60
50.23
46.99
42.67
38.02
33.59
29.60
26.20
23.47
21.48
20.08
18.81
16.87
13.34
7.56
-0.56
-10.38
-20.77
-30.46
-38.63
-45.17
-50.70
-56.07
-61.79
-67.60
-72.33
-74.39
-72.29
-65.31
-53.59
-37.99
-19.72
0.08
20.40
40.31
58.87
75.15
88.35
98.15
104.72
108.71
110.96
112.11
112.44
111.82
109.96
106.62
101.90
96.27
90.45
85.15
80.68
76.78
72.61
67.04
59.15
48.59
35.68
21.28
6.40
-8.03
-21.25
-32.60
-41.44
-47.27
-49.92
-49.72
-47.54
-44.39
-41.07
-37.87
-34.59
-30.87
-26.59
-22.02
-17.74
-14.36
-12.19
-11.19
-11.11
-11.65
-12.59
-13.63
-14.28
-13.78
-11.23
-6.04
1.80
11.58
22.06
31.99
40.56
47.62
53.44
58.32
62.13
64.24
63.90
60.66
54.93
47.82
40.77
34.80
30.01
25.59
20.29
13.17
4.08
-6.24
-16.72
-26.49
-35.22
-43.04
-50.12
-56.23
-60.72
-62.74
-61.74
-57.75
-51.37
-43.45
-34.82
-26.18
-18.21
-11.72
-7.61
-6.46
-8.12
-11.60
-15.31
-17.83
-18.55
-17.86
-16.81
-16.43
-17.00
-17.97
-18.14
-16.25
-11.58
-4.21
5.01
14.67
23.15
28.99
31.30
29.97
25.79
20.19
14.80
10.84
8.74
8.01
7.45
5.54
1.01
-6.71
-17.26
-29.46
-41.69
-52.45
-60.86
-66.72
-70.33
-72.12
-72.38
-71.24
-68.86
-65.67
-62.33
-59.49
-57.47
-56.05
-54.58
-52.26
-48.63
-43.74
-38.20
-32.90
-28.66
-26.00
-25.01
-25.34
-26.35
-27.23
-27.12
-25.26
-21.17
-14.75
-6.32
3.34
13.25
22.42
30.10
35.89
39.71
41.64
41.85
40.60
38.24
35.36
32.66
30.86
30.48
31.60
33.84
36.46
38.66
39.81
39.74
38.62
36.90
35.00
33.10
31.20
29.21
27.26
25.70
25.02
25.51
27.00
28.79
29.89
29.33
26.52
21.29
13.80
4.43
-6.39
-18.09
-29.88
-40.86
-50.15
-57.20
-61.88
-64.40
-65.03
-63.84
-60.61
-55.10
-47.28
-37.55
-26.70
-15.59
-4.80
5.45
15.29
24.76
33.61
41.13
46.45
48.95
48.52
45.77
41.60
36.88
32.15
27.51
22.89
18.45
14.66
12.21
11.55
12.54
14.27
15.31
14.17
9.81
1.97
-8.77
-21.29
-34.27
-46.53
-57.36
-66.51
-74.09
-80.38
-85.66
-90.15
-93.96
-97.03
-99.07
-99.53
-97.70
-92.87
-84.65
-73.26
-59.52
-44.63
-29.77
-15.73
-2.88
8.67
18.82
27.28
33.52
37.00
37.46
35.15
30.84
25.71
20.95
17.36
15.10
13.71
12.29
10.08
6.57
1.85
-3.62
-9.20
-14.37
-18.73
-22.11
-24.48
-26.02
-27.25
-28.85
-31.40
-35.02
-39.16
-42.75
-44.68
-44.36
-42.04
-38.81
-36.13
-35.26
-36.83
-40.67
-45.86
-51.00
-54.58
-55.22
-51.90
-43.99
-31.43
-14.76
4.87
25.72
45.81
63.32
77.02
86.57
92.34
95.14
95.71
94.55
91.97
88.36
84.31
80.68
78.27
77.54
78.39
80.18
81.94
82.62
81.48
78.35
73.56
67.81
61.72
55.46
48.67
40.70
31.00
19.48
6.63
-6.67
-19.50
-31.27
-41.93
-52.01
-62.48
-74.40
-88.61
-105.33
-123.90
-142.77
-159.85
-172.96
-180.36
-181.06
-174.93
-162.69
-145.73
-125.82
-104.91
-84.65
-66.14
-49.83
-35.67
-23.28
-12.38
-2.78
5.51
12.59
18.84
24.88
31.46
39.04
47.60
56.51
64.77
71.44
76.08
78.93
80.67
82.01
83.17
83.70
82.78
79.74
74.52
67.84
60.84
54.52
49.34
45.25
41.93
39.15
36.89
35.09
33.35
30.96
27.25
22.07
16.20
11.09
8.17
8.03
9.95
12.07
12.14
8.39
0.11
-12.20
-27.12
-42.82
-57.62
-70.37
-80.54
-88.12
-93.19
-95.61
-94.80
-89.95
-80.49
-66.39
-48.38
-27.70
-5.70
16.48
37.83
57.26
73.31
84.34
89.07
87.08
79.04
66.32
50.34
32.10
11.98
-9.77
-32.63
-55.46
-76.61
-94.25
-106.85
-113.47
-113.86
-108.35
-97.52
-82.12
-63.00
-41.32
-18.53
3.90
24.95
44.40
62.55
79.49
94.08
103.68
104.81
94.74
73.17
42.90
9.03
-22.75
-47.90
-63.82
-69.53
-64.96
-50.63
-27.87
0.71
31.26
59.73
83.21
100.87
113.91
124.52
134.51
144.26
152.76
158.22
159.15
155.00
146.29
134.11
119.62
103.54
85.99
66.53
44.49
19.42
-8.35
-37.20
-64.06
-84.94
-96.10
-95.54
-84.17
-65.97
-46.91
-32.92
-27.68
-31.45
-41.29
-52.49
-60.55
-62.64
-58.25
-48.71
-36.36
-23.58
-12.20
-3.07
3.99
10.18
17.30
26.93
39.51
53.69
66.72
75.52
78.20
75.01
68.28
61.41
57.46
58.17
63.61
72.67
83.65
94.69
103.88
109.53
110.52
107.03
100.95
95.55
94.40
100.01
112.87
131.45
153.05
174.95
195.14
212.35
225.51
233.36
234.42
227.63
213.17
192.78
169.29
145.67
124.22
106.00
90.95
78.16
66.13
52.87
36.19
14.38
-12.75
-42.96
-71.72
-93.49
-103.96
-102.03
-90.48
-74.95
-61.82
-56.03
-60.00
-73.83
-96.14
-125.13
-159.08
-196.50
-235.91
-275.74
-314.23
-349.33
-378.80
-400.66
-414.19
-420.70
-423.08
-424.15
-424.48
-421.13
-408.69
-382.18
-340.62
-288.95
-236.91
-195.10
-170.57
-163.88
-169.38
-178.19
-182.11
-176.60
-161.55
-139.94
-115.56
-91.22
-67.88
-44.73
-20.10
7.62
39.36
74.95
112.98
151.01
185.97
215.15
237.02
251.61
260.23
264.61
265.99
264.68
260.39
252.94
243.04
232.30
222.79
216.23
213.38
213.88
216.51
219.76
222.50
224.47
226.24
228.54
231.42
233.46
231.82
223.01
204.37
174.97
135.60
87.92
33.45
-26.39
-89.07
-149.41
-199.02
-228.05
-229.01
-200.88
-151.15
-94.42
-47.51
-23.63
-27.88
-55.90
-95.91
-133.17
-154.92
-154.05
-130.50
-90.16
-41.94
5.60
46.60
78.75
102.52
119.78
132.81
143.80
154.81
167.49
182.18
196.72
205.88
202.80
182.44
145.41
99.65
58.28
34.04
33.10
51.70
77.46
95.20
93.95
71.06
32.01
-13.97
-58.95
-99.13
-134.54
-166.82
-197.24
-226.23
-253.79
-279.77
-302.98
-320.26
-326.74
-317.81
-291.85
-251.40
-202.05
-149.16
-94.98
-38.39
22.21
85.31
144.15
188.38
208.60
200.78
167.99
118.67
62.53
7.26
-42.67
-85.50
-120.65
-148.27
-169.70
-187.63
-205.48
-225.63
-248.02
-269.88
-287.17
-296.47
-296.15
-286.24
-267.24
-239.40
-202.97
-159.35
-112.12
-66.60
-27.99
0.85
20.39
34.07
46.43
60.71
77.60
95.20
110.43
120.84
125.74
126.24
124.27
120.91
115.20
103.79
81.91
45.64
-5.69
-67.81
-131.70
-186.02
-220.72
-230.38
-215.48
-181.33
-135.34
-84.73
-35.63
6.49
36.45
50.09
46.58
30.50
11.76
2.38
11.37
40.34
82.54
125.77
157.77
170.79
163.26
138.15
100.19
53.89
3.35
-46.78
-90.75
-122.74
-138.68
-137.75
-122.65
-97.96
-67.76
-33.94
3.69
45.75
91.41
137.23
177.58
206.27
218.45
211.84
186.98
146.44
93.63
31.97
-35.14
-103.54
-167.68
-220.91
-257.02
-272.20
-266.53
-243.91
-210.40
-171.91
-132.50
-93.95
-56.44
-19.97
14.91
47.18
76.12
102.07
126.69
152.61
182.72
219.58
264.48
316.60
372.44
425.97
469.80
497.26
504.61
492.21
464.26
426.98
386.38
346.72
309.99
276.79
247.25
221.49
199.28
179.44
159.33
135.30
104.14
64.64
18.80
-28.08
-68.36
-94.22
-100.30
-85.78
-55.31
-17.62
17.20
41.17
50.95
48.29
38.34
26.75
16.94
8.93
0.06
-13.16
-32.99
-59.46
-90.51
-123.15
-154.76
-183.69
-209.50
-232.61
-254.17
-275.80
-299.79
-328.81
-364.88
-407.75
-453.39
-494.10
-520.22
-523.50
-500.26
-452.95
-389.02
-317.78
-246.93
-180.20
-117.49
-56.55
4.65
66.35
126.58
181.66
227.04
257.95
270.42
262.71
236.86
198.88
156.93
118.49
87.58
64.68
48.70
40.04
41.35
55.56
82.05
113.86
138.56
142.62
117.56
64.25
-6.92
-79.89
-138.44
-170.83
-172.31
-145.35
-98.86
-46.25
-2.51
19.63
13.62
-18.44
-66.41
-115.80
-153.26
-171.26
-169.69
-153.96
-131.11
-105.74
-78.41
-46.82
-8.69
36.16
85.43
135.91
184.99
231.25
273.64
309.99
336.49
348.74
343.80
321.31
283.77
235.53
181.64
127.18
76.85
34.78
4.04
-14.19
-21.41
-21.72
-21.16
-26.07
-41.38
-69.47
-109.48
-157.60
-208.13
-255.36
-295.07
-325.55
-347.45
-362.55
-372.41
-377.33
-376.59
-369.30
-355.52
-336.69
-315.53
-295.10
-277.30
-262.09
-247.11
-228.58
-202.99
-168.86
-127.80
-84.35
-44.30
-12.34
9.97
25.15
39.04
58.73
89.60
132.75
183.80
233.67
271.23
286.82
275.52
238.89
184.42
123.32
67.23
25.18
1.58
-4.26
3.02
16.84
30.68
39.68
41.47
36.07
25.42
12.76
1.86
-3.61
-0.64
12.28
34.27
61.76
89.01
109.63
118.78
115.17
101.76
84.49
69.94
62.58
62.98
67.72
70.77
65.96
49.23
20.25
-17.33
-56.77
-90.12
-110.61
-114.50
-101.98
-76.56
-43.07
-5.28
35.59
80.54
131.07
186.75
243.88
295.80
335.02
355.60
355.02
334.91
300.38
258.79
218.03
184.90
163.58
154.73
155.48
160.54
164.23
162.54
154.07
139.36
119.38
94.22
63.06
25.73
-15.58
-55.51
-86.87
-103.56
-103.77
-91.36
-74.50
-62.30
-60.97
-71.54
-90.33
-111.58
-130.51
-145.26
-156.83
-167.64
-179.78
-194.00
-209.80
-226.37
-243.32
-260.43
-276.77
-290.03
-297.17
-295.76
-285.47
-268.33
-247.36
-224.53
-199.46
-169.89
-133.82
-91.63
-46.64
-3.55
34.29
66.72
96.61
127.48
160.66
194.01
223.23
244.80
258.36
267.15
276.02
288.40
303.98
318.58
326.02
321.00
301.21
267.74
223.99
173.93
120.33
64.31
5.96
-54.27
-114.17
-169.57
-215.47
-248.07
-266.75
-274.87
-278.63
-284.36
-295.46
-310.75
-324.90
-330.94
-323.34
-300.32
-264.10
-219.38
-171.04
-122.23
-73.87
-25.18
25.00
77.14
130.45
183.09
232.80
277.33
314.58
342.31
358.04
359.44
345.13
315.50
273.12
222.03
166.67
110.65
56.06
3.62
-46.63
-94.79
-140.85
-184.75
-226.36
-265.25
-300.27
-329.45
-350.37
-360.89
-360.01
-348.05
-326.48
-297.27
-262.50
-224.24
-184.71
-146.14
-110.49
-78.93
-51.48
-27.25
-4.84
17.10
39.51
63.05
88.18
115.24
144.37
175.54
208.46
242.61
277.26
311.49
344.03
373.16
396.70
412.18
417.30
410.57
391.90
363.12
327.99
291.65
259.39
235.23
220.94
215.60
216.02
217.88
216.78
209.32
193.66
169.63
138.49
102.35
63.16
21.67
-22.87
-71.76
-125.13
-180.00
-229.56
-264.39
-275.50
-257.73
-212.39
-147.62
-76.33
-12.29
34.10
58.66
63.74
55.97
42.92
29.99
19.06
9.16
-1.68
-15.11
-31.97
-52.69
-77.63
-106.18
-135.18
-158.12
-166.43
-153.01
-116.35
-62.50
-3.71
46.39
77.99
88.11
80.09
59.85
31.84
-2.90
-45.65
-97.01
-154.26
-210.99
-259.23
-292.64
-308.99
-310.68
-303.09
-292.23
-283.00
-278.48
-280.18
-288.29
-301.49
-316.76
-329.50
-334.46
-327.66
-308.01
-278.08
-243.21
-209.31
-180.26
-156.57
-135.50
-113.11
-86.86
-57.43
-28.88
-7.01
3.48
1.45
-9.86
-23.90
-33.53
-33.63
-22.74
-2.68
23.06
51.44
81.30
113.65
150.94
195.14
245.95
299.80
350.35
390.45
414.75
421.38
411.98
390.29
360.10
324.08
284.07
242.33
202.29
168.00
142.40
125.86
116.34
111.34
110.28
115.50
130.66
157.47
193.00
229.64
257.63
269.26
261.92
238.65
206.10
171.21
138.43
109.06
81.97
55.19
27.15
-3.00
-36.07
-73.49
-117.26
-168.62
-226.15
-284.83
-337.07
-375.64
-396.79
-401.99
-396.60
-386.59
-375.02
-360.59
-339.05
-306.39
-261.79
-208.37
-151.68
-96.87
-46.77
-1.75
39.04
76.25
109.78
139.16
164.07
185.01
203.55
222.32
244.40
272.58
307.99
349.14
391.41
427.95
451.69
457.70
444.91
416.12
376.62
331.74
285.06
237.87
190.03
141.26
92.02
43.46
-3.14
-46.91
-87.44
-124.15
-155.53
-179.06
-192.07
-193.17
-183.38
-165.87
-144.39
-121.58
-97.86
-72.30
-44.62
-16.98
6.04
19.52
21.19
13.12
0.83
-9.84
-16.19
-20.32
-27.56
-42.98
-68.02
-99.27
-129.95
-153.08
-164.10
-161.98
-148.70
-127.72
-102.72
-77.04
-53.58
-34.98
-23.67
-21.68
-30.76
-51.98
-84.95
-126.74
-171.35
-210.54
-236.38
-244.48
-235.97
-217.14
-196.28
-179.63
-168.60
-159.90
-148.30
-130.14
-105.41
-77.59
-51.62
-31.56
-19.34
-15.07
-17.62
-24.98
-34.06
-40.48
-39.34
-27.21
-4.03
25.80
54.14
71.51
70.03
46.07
1.53
-56.69
-118.62
-173.96
-214.87
-237.78
-243.58
-236.26
-220.71
-200.95
-179.22
-156.22
-132.05
-106.87
-80.89
-53.85
-24.67
8.49
47.79
94.80
150.00
211.84
276.04
335.82
383.07
410.64
414.93
397.29
363.76
322.91
282.73
248.42
221.70
201.73
186.70
174.87
164.52
153.22
137.54
113.79
79.95
37.71
-6.84
-44.66
-66.81
-68.44
-50.99
-21.81
8.73
31.22
40.35
35.64
20.19
-1.56
-25.32
-47.42
-64.39
-72.97
-70.96
-58.32
-37.87
-14.76
5.12
17.05
18.85
11.15
-2.87
-18.46
-30.16
-33.15
-24.42
-3.86
25.34
57.57
86.57
107.45
117.97
118.56
111.17
98.07
81.00
61.10
39.27
16.49
-6.16
-27.94
-48.59
-68.55
-88.48
-108.63
-128.30
-145.75
-158.62
-164.82
-163.36
-154.66
-140.47
-123.16
-104.88
-86.99
-69.98
-53.83
-38.61
-24.73
-12.94
-3.90
2.25
6.02
8.36
10.20
12.04
13.91
15.50
16.59
17.07
17.03
16.46
15.08
12.53
8.63
3.70
-1.40
-5.55
-7.91
-8.28
-7.20
-5.72
-4.95
-5.68
-8.35
-12.95
-19.19
-26.48
-33.92
-40.30
-44.22
-44.37
-39.82
-30.38
-16.59
0.42
19.17
38.19
56.32
72.92
88.24
103.36
119.71
138.42
159.82
183.23
207.09
229.49
248.46
262.23
269.28
268.43
259.34
242.87
221.12
196.78
171.94
147.14
121.18
92.16
58.89
21.99
-16.32
-53.51
-88.17
-120.99
-154.58
-192.48
-237.58
-290.50
-348.50
-405.57
-453.75
-485.28
-495.25
-483.21
-453.05
-411.06
-363.29
-313.49
-262.82
-211.22
-159.17
-108.72
-62.92
-24.04
8.07
36.43
66.09
102.33
148.68
205.40
268.55
330.38
381.05
411.38
415.90
394.62
353.07
299.92
243.54
189.12
137.57
86.41
31.99
-28.10
-93.30
-159.50
-219.86
-266.52
-292.91
-295.79
-276.23
-239.09
-190.88
-137.35
-81.90
-25.56
31.91
90.72
150.31
209.66
267.63
323.13
374.42
418.51
451.00
467.30
464.15
441.11
401.15
350.06
294.86
242.07
196.30
159.44
130.80
107.55
85.56
60.27
27.64
-14.49
-64.70
-116.86
-160.48
-183.40
-176.22
-136.93
-73.24
-0.86
61.91
100.96
111.21
97.22
69.77
40.66
18.39
6.68
5.01
10.52
19.33
27.27
30.40
25.83
12.39
-8.87
-35.31
-64.13
-93.69
-123.86
-155.75
-190.62
-229.18
-271.03
-314.19
-354.46
-385.26
-399.14
-390.86
-360.87
-316.91
-271.77
-237.65
-219.95
-214.43
-210.00
-195.86
-168.52
-134.24
-105.19
-92.26
-99.05
-120.48
-146.49
-167.70
-179.61
-183.26
-182.60
-181.06
-179.67
-177.18
-171.40
-160.83
-145.16
-125.17
-102.02
-76.54
-48.34
-15.19
26.57
80.03
144.95
215.47
280.31
326.00
341.49
321.88
269.71
193.36
104.03
12.97
-69.97
-136.79
-181.61
-201.58
-197.85
-175.62
-142.63
-105.96
-69.27
-31.42
11.77
63.95
124.72
187.60
241.38
273.72
276.17
248.22
198.44
142.10
96.18
73.46
78.79
108.35
151.73
195.84
228.76
242.57
235.10
210.50
178.58
152.42
144.13
160.25
198.56
248.48
295.04
325.02
331.67
316.14
285.04
246.06
204.69
163.01
121.06
78.58
36.33
-4.32
-41.99
-75.49
-103.30
-123.04
-131.89
-127.99
-112.55
-90.24
-68.39
-54.58
-53.98
-68.34
-96.70
-137.40
-188.92
-249.73
-316.23
-381.09
-433.36
-461.15
-455.80
-415.30
-345.59
-258.44
-168.04
-87.34
-25.61
12.10
24.63
14.36
-13.03
-48.93
-82.04
-101.21
-97.99
-69.28
-18.45
45.72
111.70
168.99
210.34
235.20
246.83
250.72
252.01
253.24
253.90
251.18
241.51
220.81
189.73
149.52
102.89
53.26
3.58
-44.44
-90.59
-136.09
-185.22
-238.12
-296.89
-362.16
-431.94
-500.94
-561.29
-604.53
-624.40
-621.97
-597.59
-558.33
-511.94
-464.21
-417.28
-370.14
-320.68
-250.74
-185.89
-129.37
-88.79
-69.23
-70.29
-85.43
-104.01
-115.28
-112.40
-97.15
-70.15
-37.07
-2.37
32.20
67.14
103.47
141.35
179.65
214.55
247.11
276.93
304.50
330.56
354.98
375.98
390.27
394.21
384.46
363.78
336.83
309.77
287.27
270.12
254.91
236.20
209.75
174.26
133.30
91.13
50.75
12.84
-23.27
-57.48
-87.46
-109.02
-118.19
-112.51
-92.89
-62.70
-26.27
12.76
52.30
91.51
130.30
168.37
204.70
237.47
264.43
283.72
294.72
298.47
297.40
294.25
290.75
286.83
280.72
270.02
252.98
229.41
200.75
169.43
137.88
107.70
79.26
51.66
23.26
-7.53
-41.40
-77.38
-112.69
-143.35
-165.35
-176.03
-175.09
-164.79
-149.23
-133.32
-121.65
-117.66
-123.14
-137.93
-159.80
-184.79
-208.05
-225.28
-234.29
-235.91
-233.59
-231.85
-234.22
-241.77
-253.01
-264.92
-274.49
-279.67
-279.50
-273.67
-262.08
-244.97
-223.27
-199.00
-174.97
-154.14
-138.62
-129.04
-124.44
-122.87
-122.05
-119.90
-114.73
-105.09
-89.73
-67.60
-38.18
-2.01
38.92
81.38
121.45
155.61
181.80
199.90
211.47
218.84
224.19
228.91
233.50
237.69
240.50
240.33
235.15
223.27
204.21
179.32
151.21
122.52
94.47
66.86
38.75
9.62
-20.32
-51.05
-83.67
-120.18
-161.35
-204.65
-243.75
-271.13
-282.31
-278.73
-267.18
-255.50
-247.75
-242.10
-233.18
-216.83
-193.85
-169.80
-151.10
-140.57
-135.40
-129.08
-115.34
-91.65
-59.73
-23.40
14.27
52.68
92.93
135.87
179.68
219.06
246.41
254.75
240.76
206.59
159.56
109.66
66.27
35.51
19.52
17.64
28.34
50.88
85.46
132.15
189.03
250.81
308.97
353.29
374.96
369.73
339.96
294.37
245.37
204.71
179.44
169.97
170.82
173.82
171.55
159.65
137.12
104.96
64.52
16.50
-39.02
-101.26
-167.31
-231.43
-285.75
-322.65
-337.43
-330.23
-305.69
-270.56
-230.53
-188.01
-142.28
-91.89
-37.49
16.30
61.73
90.61
97.55
82.29
50.00
9.79
-27.75
-53.43
-61.73
-52.20
-29.02
1.12
32.24
61.49
89.91
120.71
156.34
196.20
236.47
271.98
299.14
317.68
330.39
340.74
350.28
357.21
357.11
345.33
319.60
281.34
235.05
186.33
139.62
96.78
57.06
18.17
-22.59
-67.36
-117.23
-171.65
-227.82
-280.31
-321.77
-345.01
-346.08
-326.37
-292.56
-254.07
-219.38
-193.41
-177.11
-169.09
-167.59
-171.39
-179.01
-187.47
-192.23
-188.83
-175.49
-154.68
-132.37
-115.17
-107.19
-107.98
-113.18
-116.98
-114.92
-105.93
-92.37
-78.75
-69.55
-67.15
-70.41
-74.66
-73.01
-58.95
-29.53
12.61
58.83
97.06
116.21
110.65
82.60
41.31
-0.57
-31.69
-45.40
-40.69
-20.48
11.26
51.77
100.27
156.56
218.63
280.89
334.59
370.61
383.37
373.54
347.71
315.11
283.13
253.94
224.53
189.74
146.26
95.07
40.82
-11.68
-60.99
-110.06
-163.92
-225.18
-290.48
-350.25
-392.24
-406.78
-391.29
-351.44
-298.64
-245.12
-199.11
-162.55
-131.59
-99.56
-60.52
-12.15
43.09
98.57
145.26
174.07
178.27
155.54
109.31
48.57
-13.79
-64.05
-91.29
-90.34
-63.09
-17.62
34.38
80.83
112.26
123.60
114.83
90.30
57.16
23.47
-3.91
-21.06
-27.58
-25.85
-19.28
-10.43
-0.50
10.01
20.19
27.99
30.80
26.84
16.24
0.96
-16.23
-33.47
-50.64
-69.04
-90.15
-114.39
-140.34
-164.99
-184.90
-197.33
-200.96
-196.02
-183.78
-165.80
-143.24
-116.50
-85.31
-49.12
-7.79
38.09
87.04
136.95
185.50
230.35
269.23
299.96
320.59
329.90
327.91
316.18
297.47
274.69
249.70
222.43
191.17
153.88
110.00
61.65
13.33
-29.63
-63.19
-86.06
-99.83
-107.70
-112.49
-115.32
-115.53
-111.84
-103.71
-92.03
-78.85
-66.23
-55.11
-44.89
-33.83
-19.97
-2.11
19.87
45.25
73.02
102.11
131.39
159.18
182.98
199.82
207.06
203.48
189.85
168.74
143.61
117.69
92.85
69.49
47.28
26.11
6.66
-9.75
-22.00
-29.98
-34.69
-37.65
-39.88
-41.19
-40.28
-35.49
-25.74
-11.17
7.17
27.84
49.58
71.35
91.86
109.08
120.58
124.46
120.72
111.78
101.59
93.67
89.06
85.55
78.73
64.42
40.98
10.24
-23.33
-54.72
-80.26
-98.43
-109.49
-114.47
-114.42
-110.27
-103.12
-94.38
-85.63
-78.30
-73.27
-70.93
-71.30
-74.07
-78.75
-84.74
-91.65
-99.64
-109.41
-121.59
-135.63
-149.15
-158.38
-159.86
-152.71
-139.67
-126.24
-118.20
-118.76
-127.25
-139.59
-150.24
-154.40
-149.38
-134.95
-113.10
-87.93
-65.42
-52.64
-55.72
-77.14
-113.86
-157.41
-196.60
-221.50
-226.85
-213.14
-185.16
-149.06
-109.34
-67.64
-23.52
23.46
71.61
116.40
151.75
172.29
175.68
163.58
141.10
115.27
93.18
80.76
81.95
98.24
128.06
166.35
204.95
234.26
246.09
236.66
208.48
169.82
132.14
106.05
97.65
106.48
125.82
145.05
153.06
141.81
109.05
59.04
1.05
-53.96
-97.21
-124.80
-137.97
-141.26
-139.65
-136.30
-132.06
-126.45
-119.22
-111.28
-104.34
-99.86
-97.84
-96.49
-92.81
-83.88
-68.15
-46.23
-21.01
2.90
20.70
29.13
27.91
20.21
11.48
7.26
10.88
22.30
38.58
55.68
70.47
81.89
90.81
98.66
106.17
112.63
116.15
114.76
107.15
92.79
71.47
42.78
6.33
-37.30
-85.37
-132.67
-172.64
-199.39
-209.71
-203.88
-184.81
-156.26
-121.07
-80.68
-35.92
11.56
58.49
100.41
133.33
155.41
167.82
174.16
178.54
183.65
189.85
195.59
199.05
199.68
198.84
199.00
202.21
208.71
216.44
221.87
221.29
211.98
193.00
165.21
131.01
93.97
58.08
26.79
2.06
-16.40
-30.90
-44.85
-61.38
-82.38
-108.35
-138.72
-172.32
-207.61
-242.54
-274.37
-299.82
-315.61
-319.08
-308.61
-283.81
-245.48
-195.54
-137.03
-73.82
-10.00
50.87
106.34
154.94
195.34
225.73
243.62
246.39
232.58
202.74
159.18
105.16
44.07
-20.86
-85.74
-145.21
-192.71
-222.08
-230.00
-217.81
-191.39
-159.09
-128.69
-104.92
-89.02
-80.00
-76.62
-78.67
-86.90
-101.72
-121.82
-143.82
-163.05
-175.40
-178.82
-173.86
-162.98
-148.85
-132.54
-112.93
-87.32
-52.94
-8.64
44.28
102.67
162.52
220.16
273.13
320.17
360.99
395.86
425.26
449.31
467.42
478.12
479.52
470.32
450.72
422.84
390.22
356.43
323.87
293.13
263.44
233.68
203.43
173.22
144.11
116.77
90.87
65.07
37.75
7.91
-24.34
-58.12
-92.64
-127.92
-164.43
-202.03
-238.75
-270.74
-293.59
-304.71
-305.06
-299.32
-294.02
-294.66
-303.50
-318.85
-336.06
-349.32
-353.29
-343.68
-317.40
-272.59
-209.34
-131.38
-47.15
30.78
88.63
116.20
111.37
81.92
42.84
10.34
-5.31
-3.88
5.55
9.59
-3.08
-37.52
-91.99
-160.44
-235.30
-309.15
-374.62
-424.14
-450.78
-450.31
-423.12
-374.87
-314.77
-252.49
-195.28
-146.40
-105.60
-70.56
-38.23
-5.76
28.93
66.75
106.61
144.84
175.51
191.74
187.47
159.58
109.24
42.36
-31.11
-99.14
-150.22
-176.31
-174.91
-149.33
-106.91
-55.92
-2.74
48.95
96.96
138.59
169.86
186.79
187.82
175.35
154.79
131.36
107.17
80.67
49.41
14.00
-19.64
-41.71
-43.59
-23.07
13.49
53.87
85.98
103.93
110.52
115.09
128.04
154.96
193.63
234.92
266.82
279.44
268.22
234.27
182.57
118.98
48.23
-26.41
-101.91
-173.80
-235.49
-279.46
-300.42
-298.57
-281.10
-260.22
-248.31
-252.30
-270.41
-293.10
-307.69
-304.55
-280.99
-241.56
-194.67
-147.95
-104.94
-64.46
-23.00
21.58
67.08
106.51
130.73
133.03
113.29
79.42
44.94
23.60
23.99
46.72
85.88
133.22
182.44
231.02
278.80
324.94
365.73
395.07
407.14
399.63
375.17
340.15
302.01
266.15
234.26
204.59
173.87
139.45
100.84
59.90
19.89
-15.88
-45.30
-67.79
-83.88
-94.55
-100.85
-103.67
-103.75
-101.53
-96.97
-89.60
-78.82
-64.56
-47.85
-31.06
-17.00
-7.96
-4.83
-6.90
-12.66
-20.89
-31.34
-44.33
-59.94
-77.08
-93.67
-107.43
-116.86
-121.57
-121.88
-118.27
-111.02
-100.65
-88.44
-76.49
-66.88
-60.57
-56.73
-52.99
-46.66
-35.89
-20.57
-2.11
17.43
36.21
53.03
67.26
78.71
87.29
93.02
96.01
96.48
94.78
91.53
87.67
84.42
82.89
83.56
85.94
88.50
89.19
86.07
77.98
64.88
47.93
29.17
10.95
-4.77
-16.86
-25.50
-32.09
-38.82
-47.88
-60.58
-76.68
-94.07
-109.26
-118.70
-120.22
-114.02
-102.50
-88.94
-75.72
-63.32
-50.66
-36.50
-20.89
-5.56
7.12
15.88
21.66
27.31
35.85
48.64
64.59
80.85
94.37
103.39
107.88
109.05
108.43
107.21
105.89
104.39
102.12
98.13
91.42
81.40
68.30
53.28
38.02
23.79
10.83
-1.78
-15.37
-30.55
-46.34
-60.17
-68.89
-70.13
-63.49
-50.77
-35.17
-20.06
-7.82
0.61
5.44
7.42
7.14
4.72
0.04
-6.84
-15.33
-24.33
-32.49
-38.70
-42.53
-44.39
-45.21
-45.89
-46.75
-47.38
-47.02
-45.31
-42.78
-40.76
-40.66
-42.97
-46.79
-50.09
-50.83
-48.21
-43.29
-38.65
-37.16
-40.54
-48.58
-59.13
-68.98
-75.01
-75.05
-68.36
-55.44
-37.74
-17.25
3.61
22.23
36.07
43.22
43.01
36.36
25.57
13.60
3.24
-3.72
-6.73
-6.28
-3.41
0.65
4.80
8.04
9.59
9.09
6.91
4.19
2.43
2.78
5.39
9.36
13.22
15.85
17.11
17.87
19.31
21.98
25.27
27.67
27.62
24.49
18.92
12.49
6.98
3.59
2.74
4.47
8.86
16.24
26.87
40.39
55.66
71.04
85.14
97.27
107.52
116.00
122.33
125.53
124.59
119.32
110.74
100.78
91.56
84.56
80.09
77.33
74.56
69.55
60.05
44.46
22.46
-4.59
-34.10
-63.33
-90.67
-116.12
-140.93
-166.21
-191.91
-216.53
-237.95
-254.53
-265.93
-272.86
-276.01
-275.00
-267.93
-252.05
-225.17
-187.13
-140.58
-90.63
-43.59
-5.25
20.56
32.83
33.30
25.79
15.02
5.19
-1.12
-3.28
-2.26
0.35
3.35
6.77
11.68
19.50
30.98
45.54
61.13
75.02
84.78
89.37
89.54
87.63
86.62
88.89
95.21
104.28
113.40
119.73
121.65
119.30
113.84
106.02
94.95
77.99
51.89
14.94
-31.10
-80.64
-125.62
-158.01
-172.51
-167.99
-147.10
-114.33
-73.61
-26.73
26.46
86.30
150.97
215.20
271.15
310.98
330.05
328.61
311.34
284.79
254.56
223.56
192.15
159.51
124.97
88.26
48.83
5.53
-42.81
-95.39
-147.77
-191.68
-217.17
-215.95
-184.41
-124.87
-44.97
44.35
131.15
204.35
255.47
279.80
277.09
251.37
209.51
158.63
103.69
46.47
-12.97
-73.40
-129.87
-173.53
-194.45
-185.93
-148.13
-88.63
-19.68
46.40
101.29
142.33
171.08
190.39
201.81
204.69
197.34
178.85
150.28
114.56
75.02
33.85
-8.53
-52.92
-99.54
-146.43
-189.31
-223.27
-245.50
-257.30
-263.79
-271.26
-283.46
-299.47
-314.11
-321.06
-316.33
-300.02
-275.62
-247.65
-219.85
-194.76
-174.59
-161.78
-158.35
-164.40
-177.10
-191.72
-203.92
-211.96
-217.02
-221.34
-225.82
-228.70
-226.34
-215.47
-195.14
-167.00
-133.82
-97.62
-58.54
-15.72
30.76
78.28
121.84
155.95
177.35
186.77
188.62
188.53
190.38
194.42
197.91
197.55
192.35
184.86
179.91
181.59
190.81
204.63
218.02
226.54
228.21
223.57
214.22
201.39
185.52
166.90
146.62
126.76
109.52
95.80
84.31
72.03
55.74
33.83
7.22
-21.07
-47.33
-68.73
-84.27
-94.65
-101.52
-106.53
-110.82
-114.99
-119.15
-122.98
-125.53
-125.22
-120.15
-109.08
-92.37
-72.51
-53.44
-39.04
-31.48
-30.22
-32.37
-34.17
-32.84
-27.82
-20.77
-14.38
-10.83
-10.74
-13.25
-16.93
-20.67
-24.07
-26.95
-28.50
-26.81
-19.34
-4.11
19.00
47.72
77.97
105.25
126.28
139.94
147.20
150.26
151.27
151.44
150.89
149.06
145.39
139.67
132.11
123.03
112.54
100.66
87.56
73.93
60.96
49.97
41.73
36.10
32.01
28.04
23.02
16.33
7.94
-2.06
-13.68
-27.02
-42.07
-58.33
-74.79
-90.06
-102.85
-112.40
-118.61
-122.01
-123.36
-123.40
-122.65
-121.34
-119.38
-116.43
-111.98
-105.39
-96.18
-84.25
-70.01
-54.50
-39.33
-26.65
-19.04
-19.02
-28.51
-48.08
-76.56
-110.86
-146.46
-178.14
-200.88
-210.64
-205.03
-183.82
-149.15
-105.18
-57.26
-10.72
30.18
62.85
86.40
101.07
107.83
108.09
103.69
96.93
90.09
85.05
82.74
83.18
85.77
89.79
94.73
100.35
106.48
112.83
118.96
124.30
128.16
129.80
128.55
124.07
116.74
107.95
99.98
95.43
96.11
102.15
111.73
121.65
128.53
130.11
125.94
117.21
106.11
94.76
84.68
76.64
70.87
67.58
66.97
69.03
73.17
77.97
81.38
81.35
76.82
68.31
57.80
47.77
39.73
33.21
25.76
14.30
-2.95
-24.94
-47.54
-64.79
-71.24
-64.33
-45.58
-20.27
4.46
22.11
29.13
25.75
15.46
3.23
-6.81
-12.74
-15.17
-16.22
-17.96
-21.17
-25.06
-27.98
-28.42
-25.79
-20.33
-12.82
-4.02
5.54
15.30
24.27
30.91
33.51
30.86
22.88
10.81
-3.08
-16.35
-27.31
-35.59
-42.23
-48.93
-57.28
-67.84
-79.99
-92.31
-103.44
-112.80
-120.92
-128.83
-137.12
-145.50
-152.60
-156.77
-156.87
-152.57
-143.94
-130.69
-111.86
-86.58
-55.34
-21.07
10.89
34.48
45.45
43.42
32.08
17.48
5.30
-1.47
-3.34
-3.43
-5.37
-11.28
-20.72
-30.85
-37.80
-38.34
-31.33
-18.02
-1.41
15.21
29.73
41.83
52.79
64.29
77.24
90.80
102.72
109.84
109.29
99.35
79.86
52.30
19.36
-15.50
-48.63
-76.73
-97.77
-111.60
-120.24
-127.26
-136.29
-149.41
-166.27
-184.47
-201.11
-214.41
-224.43
-232.44
-239.38
-244.66
-246.28
-242.06
-231.06
-214.17
-193.23
-169.40
-141.87
-108.41
-66.89
-17.46
36.10
87.02
127.79
152.90
160.78
153.98
137.41
116.30
94.61
74.77
58.22
45.75
36.96
29.34
17.82
-3.59
-38.85
-87.10
-142.34
-196.07
-241.66
-277.17
-305.31
-330.18
-353.62
-373.59
-385.70
-386.68
-377.01
-360.81
-343.18
-326.79
-310.18
-288.70
-257.48
-214.31
-160.92
-101.62
-41.25
17.14
73.12
128.40
185.57
246.88
313.69
386.29
463.95
544.53
624.21
697.33
757.09
797.32
814.38
808.53
783.69
745.83
700.72
652.40
602.74
552.06
500.24
447.33
393.53
339.06
284.01
228.80
174.35
122.31
74.30
31.26
-7.34
-43.60
-80.60
-121.34
-167.53
-218.53
-270.77
-318.39
-354.72
-374.66
-376.91
-365.22
-347.66
-333.84
-331.08
-340.79
-357.59
-371.13
-370.51
-349.08
-307.31
-252.23
-194.23
-142.84
-103.61
-77.36
-61.28
-51.00
-42.53
-33.22
-22.13
-9.57
3.52
15.97
26.58
34.35
38.39
38.21
34.28
28.36
23.57
23.54
30.78
44.86
61.74
74.76
77.21
65.58
40.63
6.93
-29.19
-61.98
-87.58
-104.28
-112.11
-112.14
-105.78
-94.28
-78.52
-59.07
-36.43
-11.23
15.51
42.38
67.85
90.43
108.60
120.77
125.28
120.79
107.08
85.97
61.61
39.45
24.25
17.94
18.67
21.84
22.49
17.87
8.33
-3.48
-14.50
-23.09
-29.61
-36.03
-44.83
-58.17
-77.64
-104.34
-138.58
-179.16
-222.72
-263.66
-295.31
-311.90
-310.27
-290.54
-255.65
-210.01
-157.88
-102.42
-45.64
11.03
66.07
117.43
163.08
202.03
234.92
263.62
289.87
313.90
334.04
347.74
353.30
351.27
344.46
336.49
329.85
324.95
320.49
314.87
307.59
299.64
292.73
288.00
285.10
281.85
275.03
261.47
239.18
207.94
169.36
126.26
81.74
38.27
-2.65
-40.17
-73.48
-101.28
-121.92
-134.19
-138.41
-137.13
-134.91
-137.25
-149.05
-173.26
-210.23
-257.90
-312.48
-369.30
-423.20
-468.85
-501.17
-515.96
-510.74
-485.64
-443.58
-389.89
-331.37
-274.80
-225.63
-186.96
-158.99
-139.31
-123.90
-108.64
-90.82
-69.99
-47.61
-25.95
-6.65
10.14
25.50
40.69
56.09
70.76
83.04
91.55
96.13
97.80
98.11
98.11
97.94
97.00
94.71
91.19
87.51
85.02
84.48
85.28
85.50
82.88
76.03
65.27
52.34
39.36
27.62
17.11
7.10
-2.95
-12.58
-20.55
-25.66
-27.66
-27.68
-27.71
-29.68
-34.63
-42.39
-51.99
-61.94
-70.68
-76.76
-79.20
-77.84
-73.34
-66.80
-59.24
-51.30
-43.37
-36.14
-30.70
-28.12
-28.44
-29.75
-28.10
-18.46
3.33
38.72
85.32
137.20
186.37
224.97
247.15
250.30
235.45
207.02
171.89
137.64
110.66
94.31
88.06
87.95
88.30
84.13
73.25
56.93
39.07
24.34
16.31
16.40
24.00
36.96
52.04
65.16
71.95
68.84
54.61
31.41
4.44
-19.91
-36.61
-44.10
-44.75
-43.63
-46.17
-55.89
-73.43
-96.57
-121.44
-144.16
-162.26
-175.43
-185.48
-195.46
-208.28
-225.22
-244.76
-262.82
-273.68
-271.85
-253.99
-220.06
-173.01
-117.42
-57.86
2.00
59.45
112.50
159.89
202.03
241.93
284.94
336.64
399.48
469.98
538.61
592.98
622.85
624.45
601.58
563.41
520.08
478.96
443.26
412.94
386.66
363.39
342.67
324.18
307.04
289.68
270.53
248.80
224.79
199.70
174.89
151.09
128.02
104.56
79.50
52.24
23.16
-6.58
-35.65
-63.24
-89.50
-115.46
-142.63
-172.46
-205.62
-241.52
-278.14
-312.18
-339.93
-358.54
-367.22
-367.98
-365.09
-363.67
-367.59
-378.04
-393.18
-409.19
-421.96
-428.53
-427.60
-419.17
-403.53
-380.34
-348.71
-307.78
-258.09
-202.56
-146.85
-98.28
-63.82
-47.77
-50.26
-67.14
-91.39
-115.44
-133.17
-140.95
-137.47
-122.69
-96.91
-60.52
-14.48
38.96
95.84
150.90
198.67
234.86
257.37
266.63
265.18
256.73
245.05
232.90
221.48
210.40
198.42
184.37
167.93
149.91
131.62
114.04
96.98
79.11
58.78
35.32
9.86
-14.95
-36.14
-51.86
-62.06
-68.01
-71.16
-72.13
-70.53
-65.47
-56.38
-43.53
-27.92
-10.90
6.09
21.54
33.77
40.97
41.69
35.38
22.76
5.31
-15.60
-39.59
-67.26
-99.21
-134.51
-170.00
-200.55
-220.80
-227.07
-218.63
-197.75
-168.52
-135.51
-102.89
-74.06
-51.64
-36.98
-29.67
-27.19
-25.65
-21.49
-13.13
-1.63
10.37
20.69
29.34
38.54
51.06
67.99
87.34
104.33
113.33
110.14
93.83
67.16
35.68
6.01
-16.09
-27.30
-27.41
-18.94
-5.77
8.38
20.98
30.88
37.47
40.02
37.43
28.99
15.28
-1.30
-16.98
-28.00
-31.99
-28.80
-20.20
-8.99
2.30
12.08
19.77
25.29
28.51
29.24
27.56
24.22
20.60
18.21
17.93
19.45
21.67
23.47
24.51
25.39
27.03
29.81
33.12
35.54
35.55
32.13
24.99
14.34
0.69
-15.23
-32.41
-49.60
-65.71
-80.13
-93.01
-104.96
-116.43
-127.30
-136.76
-144.00
-148.82
-152.00
-154.88
-158.51
-162.88
-166.63
-167.57
-163.48
-153.14
-136.79
-116.31
-94.75
-75.54
-61.59
-54.40
-53.84
-58.23
-65.18
-72.44
-78.83
-84.54
-90.81
-99.47
-112.33
-130.68
-154.91
-183.94
-214.86
-243.05
-263.14
-270.54
-262.98
-241.19
-208.27
-168.18
-124.03
-77.26
-27.90
24.18
78.14
131.55
180.84
222.52
254.39
276.42
290.42
299.18
304.95
308.33
308.14
302.29
289.11
268.52
242.32
213.35
184.29
156.66
130.76
106.42
83.98
64.79
50.75
43.40
43.15
49.31
60.83
77.19
98.75
126.07
158.69
194.22
228.42
256.38
274.18
280.13
274.98
261.20
241.83
219.64
196.77
174.87
155.24
138.75
125.64
115.41
106.90
98.85
90.31
81.02
71.29
61.67
52.40
43.22
33.52
22.69
10.77
-1.33
-12.02
-19.59
-22.89
-21.75
-16.98
-9.86
-1.59
7.05
15.68
24.07
31.83
38.35
42.92
45.10
45.03
43.47
41.61
40.63
41.12
42.79
44.46
44.26
40.09
30.05
12.88
-11.40
-41.27
-73.59
-104.03
-128.19
-143.00
-148.16
-146.82
-144.84
-148.96
-164.35
-192.75
-231.79
-275.68
-316.73
-347.30
-361.42
-355.90
-330.73
-288.78
-235.19
-176.13
-117.59
-64.23
-18.50
19.48
51.25
78.90
103.84
125.93
143.53
154.19
156.00
148.80
134.60
117.04
99.99
86.37
77.36
72.72
71.53
72.89
76.08
80.24
83.73
84.15
78.87
65.98
45.30
18.58
-11.13
-40.65
-67.78
-91.69
-112.42
-129.95
-143.43
-151.23
-151.77
-144.62
-130.99
-113.50
-95.26
-78.95
-66.18
-57.69
-53.65
-53.96
-58.06
-64.47
-70.58
-73.15
-69.53
-58.89
-42.96
-25.47
-10.82
-2.57
-2.34
-9.82
-23.19
-39.83
-56.58
-69.90
-76.16
-72.44
-57.74
-33.86
-5.31
21.99
42.72
53.97
55.91
51.22
43.54
35.78
29.20
23.24
16.26
6.48
-7.35
-25.55
-47.74
-73.08
-100.43
-128.22
-154.35
-176.32
-191.60
-198.53
-196.87
-187.93
-174.02
-157.77
-141.57
-127.33
-116.43
-109.36
-105.30
-101.50
-93.57
-76.82
-48.45
-9.37
35.29
77.76
110.59
129.67
135.67
133.30
128.85
127.33
130.67
137.45
144.21
147.15
143.46
131.97
112.80
86.94
56.04
22.53
-10.07
-37.49
-55.54
-61.66
-55.98
-41.47
-22.74
-4.01
12.59
27.47
42.59
59.63
78.50
97.03
111.91
120.06
119.80
111.11
95.39
74.96
52.77
32.27
17.10
10.47
14.26
28.48
51.17
78.99
108.07
134.92
157.00
173.02
182.99
187.98
189.66
189.66
189.10
188.16
186.24
182.37
175.71
166.01
153.77
140.15
126.59
114.35
104.01
94.88
84.83
70.46
47.96
14.42
-30.67
-84.78
-142.52
-197.22
-242.91
-276.09
-296.28
-305.41
-306.27
-301.05
-290.70
-275.12
-254.06
-228.06
-198.69
-168.33
-139.41
-113.66
-91.73
-73.13
-56.49
-40.05
-22.20
-1.97
20.77
45.36
70.75
95.78
119.49
141.13
160.04
175.79
188.31
197.99
205.72
212.57
219.23
225.32
229.11
227.67
217.75
197.08
165.50
125.35
80.89
36.82
-3.36
-38.37
-69.13
-97.68
-125.81
-154.07
-181.55
-206.37
-226.34
-239.53
-244.43
-240.06
-226.11
-203.19
-173.13
-138.84
-103.88
-71.64
-44.41
-22.96
-6.56
6.47
17.90
28.87
39.70
50.14
59.94
69.25
78.50
87.86
96.79
103.96
107.85
107.51
102.91
94.44
82.07
64.68
40.44
8.10
-31.59
-75.22
-117.49
-153.07
-178.34
-192.15
-195.54
-190.57
-179.47
-164.42
-147.80
-132.42
-121.02
-115.54
-116.19
-121.20
-127.40
-131.19
-129.41
-119.99
-101.98
-75.54
-41.87
-3.27
36.92
74.76
106.38
128.84
140.83
143.03
137.79
128.37
117.94
108.74
101.65
96.14
90.76
83.80
73.96
60.82
44.91
27.49
10.15
-5.53
-18.15
-26.58
-30.02
-28.21
-21.80
-12.47
-2.71
4.88
8.36
7.07
1.74
-6.14
-15.02
-23.85
-32.18
-39.74
-45.92
-49.64
-49.51
-44.58
-35.03
-22.55
-9.99
-0.52
3.48
1.30
-6.06
-16.45
-27.62
-38.10
-47.56
-56.53
-66.02
-76.97
-90.05
-105.58
-123.49
-143.39
-164.48
-185.62
-205.43
-222.54
-235.69
-243.83
-246.05
-241.71
-230.55
-212.91
-189.74
-162.37
-132.19
-100.42
-68.13
-36.49
-6.97
18.75
39.29
54.34
65.11
74.09
84.07
96.70
111.50
125.86
136.22
139.72
135.62
125.50
112.56
100.25
91.01
85.90
84.82
87.16
92.26
99.42
107.82
116.39
123.95
129.49
132.46
132.89
131.34
128.65
125.73
123.39
122.16
122.15
123.01
123.99
124.25
123.17
120.59
116.70
111.71
105.50
97.61
87.52
75.21
61.44
47.67
35.60
26.56
21.13
19.12
19.85
22.48
26.20
30.38
34.50
38.25
41.50
44.14
45.97
46.46
44.80
40.23
32.41
21.67
9.11
-3.75
-15.26
-24.11
-29.56
-31.56
-30.73
-28.13
-24.93
-22.02
-19.82
-18.22
-16.73
-14.77
-11.88
-7.92
-3.07
2.16
7.09
11.18
14.19
16.31
18.02
19.76
21.63
23.42
24.84
25.82
26.61
27.63
29.04
30.54
31.40
30.90
28.76
25.35
21.48
17.92
15.02
12.60
10.20
7.42
4.23
0.95
-1.93
-4.02
-5.14
-5.42
-5.19
-4.81
-4.69
-5.09
-6.15
-7.79
-9.81
-11.93
-13.94
-15.80
-17.65
-19.64
-21.85
-24.03
-25.84
-26.98
-27.48
-27.62
-27.72
-27.82
-27.42
-25.69
-21.84
-15.63
-7.51
1.43
9.93
17.02
22.20
25.55
27.42
28.16
28.01
27.10
25.59
23.70
21.77
20.14
19.00
18.26
17.72
17.07
16.17
15.03
13.69
12.15
10.23
7.74
4.58
0.92
-2.87
-6.38
-9.42
-12.04
-14.49
-16.97
-19.54
-22.07
-24.33
-26.18
-27.61
-28.76
-29.87
-31.16
-32.77
-34.75
-37.07
-39.52
-41.77
-43.36
-43.78
-42.70
-40.12
-36.35
-31.98
-27.63
-23.68
-20.21
-17.03
-13.94
-11.01
-8.60
-7.24
-7.35
-8.98
-11.71
-14.82
-17.50
-19.19
-19.75
-19.53
-19.20
-19.55
-21.18
-24.34
-28.82
-33.97
-38.91
-42.75
-44.87
-45.12
-43.84
-41.78
-39.79
-38.37
-37.21
-35.01
-29.60
-18.59
-0.27
25.45
56.79
90.32
121.81
147.38
164.30
171.57
169.76
160.62
146.43
129.51
111.81
94.83
79.64
66.96
57.11
50.05
45.33
42.19
39.78
37.40
34.70
31.73
28.84
26.40
24.61
23.31
22.11
20.54
18.28
15.30
11.86
8.39
5.25
2.56
0.08
-2.65
-6.17
-10.79
-16.49
-22.94
-29.59
-35.83
-41.14
-45.18
-47.88
-49.42
-50.23
-50.78
-51.50
-52.63
-54.07
-55.48
-56.27
-55.76
-53.32
-48.63
-41.82
-33.44
-24.20
-14.62
-4.84
5.41
16.35
27.81
38.92
48.24
54.35
56.46
54.79
50.49
45.14
40.13
36.26
33.58
31.54
29.04
24.44
15.52
-0.27
-25.25
-60.71
-105.95
-157.81
-211.03
-259.60
-298.48
-324.99
-339.19
-343.18
-339.80
-331.41
-319.50
-304.93
-288.52
-271.42
-254.89
-239.67
-225.14
-209.06
-187.96
-158.35
-118.24
-68.25
-11.74
46.22
100.45
147.27
185.25
214.68
236.43
250.86
257.55
256.05
246.89
232.16
215.09
198.76
184.83
172.95
161.18
147.06
128.88
106.53
81.69
57.29
36.50
21.66
13.66
11.80
14.33
19.13
24.24
28.20
30.09
29.58
26.97
23.15
19.56
17.77
18.99
23.65
31.24
40.43
49.51
56.80
60.84
60.53
55.40
45.89
33.67
21.48
12.44
8.82
11.07
17.51
24.92
29.89
30.14
25.24
16.44
5.75
-5.01
-14.89
-23.77
-31.90
-39.37
-45.98
-51.53
-56.36
-61.54
-68.62
-78.94
-92.78
-108.91
-124.87
-137.82
-145.71
-147.80
-144.64
-137.35
-126.91
-113.67
-97.53
-78.31
-56.12
-31.55
-5.52
20.89
46.60
70.72
92.69
112.34
129.70
144.73
156.89
165.18
168.53
166.48
159.76
150.21
140.12
131.30
124.34
118.56
112.60
105.31
96.33
86.22
76.14
67.20
60.10
54.89
50.98
47.41
43.05
36.99
28.81
18.93
8.64
-0.21
-5.79
-6.95
-3.63
3.20
11.97
21.16
29.59
36.54
41.59
44.49
45.22
44.10
41.83
39.38
37.69
37.30
38.24
39.97
41.58
42.02
40.38
36.26
29.98
22.53
15.25
9.15
4.48
0.57
-3.76
-9.60
-17.44
-26.95
-37.23
-47.33
-56.53
-64.56
-71.46
-77.28
-81.81
-84.43
-84.03
-79.42
-69.81
-55.34
-37.33
-17.90
0.69
16.82
29.79
39.54
45.99
48.52
46.25
38.78
26.94
12.87
-0.67
-11.50
-19.00
-24.15
-28.59
-33.35
-38.12
-41.43
-41.64
-38.02
-31.01
-21.87
-11.85
-1.61
8.58
18.23
26.06
30.02
28.22
20.05
6.92
-7.98
-20.82
-28.66
-30.47
-27.16
-20.78
-13.54
-6.90
-1.46
2.80
5.93
7.72
7.73
5.62
1.55
-3.72
-8.93
-12.81
-14.36
-13.22
-9.62
-4.21
2.33
9.58
17.45
26.07
35.34
44.64
52.73
58.00
59.07
55.35
47.35
36.52
24.74
13.64
4.11
-3.75
-10.44
-16.49
-22.12
-27.19
-31.33
-34.25
-35.99
-36.93
-37.61
-38.45
-39.47
-40.33
-40.36
-38.93
-35.67
-30.55
-23.78
-15.62
-6.25
4.23
15.55
27.16
37.96
46.66
52.12
53.87
52.40
48.96
45.13
42.18
40.73
40.69
41.66
43.29
45.54
48.61
52.60
57.19
61.65
65.01
66.45
65.68
62.99
58.97
54.28
49.23
43.78
37.58
30.35
22.02
12.90
3.52
-5.57
-14.06
-21.94
-29.39
-36.56
-43.39
-49.59
-54.75
-58.55
-60.90
-61.99
-62.03
-61.19
-59.43
-56.62
-52.74
-47.97
-42.75
-37.64
-33.06
-29.22
-26.04
-23.32
-20.91
-18.79
-17.10
-15.95
-15.39
-15.30
-15.50
-15.79
-16.05
-16.17
-16.10
-15.82
-15.32
-14.64
-13.86
-13.05
-12.30
-11.67
-11.20
-10.95
-10.95
-11.12
-11.29
-11.20
-10.70
-9.86
-9.01
-8.63
-9.14
-10.70
-13.15
-16.08
-19.03
-21.71
-24.07
-26.25
-28.48
-30.91
-33.57
-36.33
-38.95
-41.10
-42.42
-42.49
-40.97
-37.64
-32.53
-25.86
-18.19
-10.20
-2.60
4.01
9.32
13.31
16.20
18.26
19.72
20.65
21.04
20.91
20.39
19.67
18.89
17.93
16.41
13.83
9.79
4.22
-2.54
-9.93
-17.37
-24.53
-31.30
-37.65
-43.46
-48.38
-51.99
-53.98
-54.53
-54.25
-54.03
-54.62
-56.22
-58.37
-60.23
-60.97
-60.28
-58.53
-56.55
-55.22
-55.01
-55.83
-57.01
-57.69
-56.97
-54.20
-48.92
-40.97
-30.48
-17.91
-4.11
9.92
23.11
34.60
43.84
50.68
55.22
57.75
58.62
58.16
56.66
54.42
51.77
49.26
47.53
47.24
48.86
52.42
57.50
63.32
69.03
73.95
77.72
80.28
81.66
81.94
81.14
79.26
76.36
72.61
68.32
63.85
59.52
55.51
51.78
48.16
44.40
40.35
36.04
31.64
27.43
23.70
20.66
18.51
17.43
17.62
19.28
22.42
26.93
32.47
38.55
44.59
49.95
53.94
55.90
55.36
52.27
47.06
40.62
34.01
28.02
22.92
18.36
13.54
7.61
0.05
-9.16
-19.53
-30.23
-40.35
-49.07
-55.86
-60.52
-63.17
-64.24
-64.35
-64.09
-64.01
-64.44
-65.63
-67.67
-70.62
-74.42
-78.90
-83.72
-88.28
-91.82
-93.55
-92.89
-89.60
-83.80
-75.79
-65.85
-54.12
-40.65
-25.63
-9.59
6.61
22.05
36.02
48.17
58.41
66.47
71.89
74.08
72.82
68.71
63.20
58.10
54.80
53.61
53.72
53.67
52.12
48.43
42.73
35.60
27.48
18.42
8.12
-3.74
-17.03
-30.96
-44.22
-55.34
-63.21
-67.46
-68.53
-67.44
-65.33
-63.04
-60.81
-58.33
-54.90
-49.81
-42.56
-33.15
-22.12
-10.42
0.78
10.42
17.86
23.11
26.77
29.88
33.54
38.51
44.84
51.70
57.34
59.56
56.25
46.12
29.22
6.95
-18.36
-44.12
-68.16
-88.93
-105.52
-117.37
-124.33
-126.77
-125.79
-123.19
-120.83
-119.91
-120.31
-120.59
-118.66
-112.87
-102.86
-89.77
-75.69
-62.70
-52.10
-44.09
-38.07
-33.28
-29.35
-26.37
-24.65
-24.35
-25.18
-26.42
-27.20
-26.88
-25.26
-22.69
-19.76
-17.11
-15.14
-13.84
-12.92
-11.99
-10.81
-9.51
-8.57
-8.54
-9.79
-12.18
-14.99
-17.17
-17.69
-15.92
-11.79
-5.71
1.84
10.63
20.76
32.48
45.67
59.57
72.85
84.08
92.41
97.80
100.87
102.30
102.37
100.89
97.56
92.49
86.49
80.72
76.03
72.42
68.96
64.29
57.32
47.75
36.00
22.78
8.63
-6.32
-22.21
-39.09
-56.66
-74.19
-90.64
-104.95
-116.35
-124.48
-129.30
-130.84
-128.94
-123.09
-112.81
-98.22
-80.53
-61.97
-45.19
-32.08
-22.79
-15.74
-8.43
1.23
13.99
29.17
45.39
61.61
77.45
93.04
108.27
122.31
133.66
140.76
142.57
138.91
130.22
117.33
101.16
82.71
63.18
43.92
26.13
10.40
-3.45
-16.19
-28.69
-41.24
-53.32
-63.75
-71.27
-75.21
-75.75
-73.85
-70.79
-67.66
-64.99
-62.87
-61.16
-59.73
-58.51
-57.54
-56.99
-57.30
-59.18
-63.38
-70.19
-79.02
-88.29
-96.01
-100.59
-101.65
-100.15
-97.91
-96.66
-97.29
-99.56
-102.54
-105.20
-106.94
-107.60
-107.22
-105.74
-102.88
-98.25
-91.52
-82.59
-71.50
-58.24
-42.51
-23.70
-1.18
25.35
55.41
87.61
119.79
149.38
173.93
191.65
201.87
205.22
203.66
199.96
196.99
196.91
200.47
206.94
214.49
221.05
225.14
226.34
225.05
221.92
217.27
210.88
202.23
190.86
176.69
159.99
141.19
120.53
98.01
73.45
46.72
17.79
-13.42
-47.15
-83.70
-123.03
-164.26
-205.40
-243.72
-276.44
-301.49
-317.86
-325.47
-324.74
-316.08
-299.83
-276.42
-246.72
-212.38
-175.74
-139.44
-105.90
-76.75
-52.56
-32.69
-15.66
0.30
16.44
33.06
49.42
64.23
76.45
85.78
92.70
98.08
102.69
106.95
110.99
114.95
119.33
125.06
133.15
144.11
157.35
171.09
182.78
190.00
191.32
186.84
177.91
166.40
153.68
140.08
124.90
107.06
85.76
60.91
33.03
2.82
-29.00
-61.73
-94.50
-126.11
-155.13
-180.29
-200.73
-216.15
-226.53
-231.65
-230.79
-222.85
-206.96
-183.40
-154.17
-122.62
-92.33
-65.44
-41.66
-18.41
7.71
38.97
74.98
112.42
146.26
171.75
186.28
190.33
187.07
180.93
175.89
174.12
175.62
178.66
180.84
179.95
174.44
163.19
145.07
118.97
84.50
43.20
-0.76
-40.98
-70.65
-84.94
-82.79
-67.14
-43.49
-17.39
7.72
31.27
54.78
80.01
107.18
134.29
157.60
173.09
177.91
171.33
154.86
131.53
105.00
78.51
54.15
32.65
13.47
-4.71
-23.26
-43.12
-64.53
-87.19
-110.34
-132.90
-153.37
-169.77
-180.01
-182.51
-176.78
-163.81
-145.86
-125.89
-106.75
-90.62
-78.68
-71.04
-66.78
-64.07
-60.35
-52.71
-38.53
-16.15
14.46
51.54
91.82
131.21
165.67
192.11
209.08
216.84
217.06
212.08
204.04
194.27
183.29
170.84
156.10
138.25
116.71
91.64
64.51
38.34
17.52
6.69
8.98
24.11
47.65
71.93
88.66
91.89
80.04
55.61
23.24
-12.95
-51.09
-91.50
-135.38
-183.56
-236.03
-292.30
-351.58
-412.32
-471.17
-522.22
-557.83
-570.99
-558.09
-520.55
-464.51
-398.54
-330.77
-266.86
-209.39
-158.68
-113.79
-73.30
-35.39
2.41
43.18
89.84
143.52
201.91
258.81
305.27
332.87
337.28
320.46
290.05
256.22
227.17
206.03
190.38
174.55
153.23
124.10
88.28
48.78
8.30
-31.82
-71.24
-109.26
-143.93
-172.30
-191.71
-201.25
-202.35
-198.05
-191.55
-184.94
-178.83
-172.90
-166.59
-159.49
-151.15
-140.74
-127.28
-110.32
-90.74
-70.68
-52.79
-38.97
-29.76
-24.54
-22.18
-21.75
-22.55
-23.88
-24.66
-23.78
-20.68
-15.80
-10.47
-6.14
-3.49
-1.88
0.14
3.98
10.04
17.53
24.96
30.95
34.76
36.42
36.35
34.83
31.75
26.55
18.72
8.29
-3.94
-16.36
-26.89
-33.55
-35.03
-31.04
-22.28
-10.19
3.47
17.05
29.26
39.18
46.16
49.70
49.55
45.81
39.09
30.57
21.77
14.27
9.47
8.47
11.99
20.20
32.67
48.21
65.05
81.22
94.99
105.35
112.06
115.47
116.22
114.90
111.89
107.37
101.35
93.71
84.27
72.98
60.03
46.01
31.85
18.48
6.49
-4.00
-13.33
-21.95
-30.13
-37.85
-44.93
-51.21
-56.69
-61.50
-65.63
-68.80
-70.35
-69.50
-65.69
-58.87
-49.64
-39.06
-28.30
-18.30
-9.54
-2.10
4.22
9.67
14.35
18.24
21.24
23.34
24.73
25.74
26.82
28.44
30.96
34.51
38.89
43.52
47.53
50.04
50.45
48.62
44.94
40.17
35.17
30.67
27.01
24.15
21.71
19.12
15.84
11.55
6.16
-0.19
-7.33
-15.05
-23.12
-31.05
-38.06
-43.16
-45.53
-44.86
-41.50
-36.33
-30.34
-24.28
-18.51
-13.15
-8.39
-4.67
-2.56
-2.44
-4.18
-7.10
-10.20
-12.71
-14.44
-15.93
-18.10
-21.70
-26.72
-32.31
-37.02
-39.49
-39.13
-36.36
-32.32
-28.09
-23.98
-19.13
-12.02
-1.33
13.27
30.94
50.12
69.29
87.35
103.52
116.71
125.21
126.97
120.49
106.04
86.20
65.40
48.49
38.95
37.69
42.84
50.83
57.92
61.66
61.61
59.13
56.43
55.38
56.52
58.86
60.46
59.56
55.70
50.10
45.27
43.86
47.26
54.79
63.76
70.63
72.61
68.97
61.34
52.78
46.25
43.28
43.41
44.80
45.45
44.33
41.73
38.86
36.83
35.82
34.85
32.33
27.05
18.96
9.51
1.19
-3.37
-2.48
3.79
13.23
21.79
24.44
16.73
-3.81
-36.35
-76.52
-117.19
-150.22
-168.33
-166.74
-144.25
-103.67
-51.80
1.66
46.25
73.70
80.68
69.99
49.22
27.58
12.12
5.61
6.69
12.09
19.04
26.42
34.15
41.67
47.01
47.12
39.42
23.38
1.00
-23.81
-46.57
-63.74
-73.68
-76.97
-75.86
-73.37
-71.96
-72.38
-73.31
-71.86
-65.00
-51.19
-31.27
-8.29
13.70
31.15
42.08
46.25
44.70
39.01
30.70
21.05
11.12
1.89
-5.73
-10.97
-13.37
-13.05
-10.70
-7.42
-4.25
-1.77
0.05
1.69
3.51
5.29
6.18
5.10
1.41
-4.65
-11.97
-19.25
-25.57
-30.80
-35.45
-40.19
-45.31
-50.42
-54.61
-56.69
-55.55
-50.43
-41.03
-27.49
-10.28
9.98
32.60
56.80
81.57
105.58
127.32
145.40
158.79
166.99
169.82
167.20
158.90
144.90
125.78
103.12
79.50
57.82
40.42
28.31
20.97
16.76
13.60
9.53
3.04
-6.91
-20.69
-37.94
-57.42
-77.19
-95.10
-109.52
-119.77
-126.37
-130.66
-133.91
-136.69
-138.36
-137.08
-130.23
-115.22
-90.42
-56.20
-15.74
24.89
57.78
75.44
73.57
52.97
19.85
-16.20
-45.34
-60.81
-60.55
-46.91
-24.72
1.01
26.48
49.35
68.17
81.78
89.19
90.01
84.94
76.01
66.15
58.23
54.16
54.19
56.76
59.14
58.50
53.03
42.60
28.83
14.37
1.90
-6.75
-11.00
-11.39
-9.11
-5.48
-1.66
1.48
3.23
3.01
0.38
-4.96
-12.96
-23.18
-34.98
-47.64
-60.70
-74.08
-87.89
-102.04
-115.88
-128.05
-136.97
-141.44
-141.29
-137.46
-131.58
-125.15
-118.92
-112.79
-106.20
-98.84
-91.02
-83.63
-77.66
-73.57
-70.90
-68.45
-64.75
-58.72
-50.00
-38.96
-26.51
-13.61
-1.08
10.52
20.80
29.49
36.41
41.33
44.13
44.73
43.21
39.81
35.09
29.71
24.31
19.24
14.34
9.02
2.41
-6.26
-17.44
-31.08
-46.74
-63.66
-80.89
-97.31
-111.77
-123.17
-130.70
-134.01
-133.30
-129.17
-122.38
-113.53
-102.87
-90.37
-75.91
-59.56
-41.69
-22.97
-4.18
13.92
30.78
45.94
59.02
69.62
77.29
81.71
82.77
80.73
76.21
70.09
63.17
56.06
48.99
41.89
34.53
26.80
18.94
11.56
5.49
1.46
-0.20
0.23
2.02
4.18
5.92
6.79
6.72
5.82
4.15
1.73
-1.34
-4.58
-7.16
-8.03
-6.40
-2.12
4.20
11.48
18.60
24.81
29.88
33.93
37.14
39.55
41.07
41.63
41.34
40.46
39.27
37.82
35.94
33.30
29.70
25.22
20.29
15.57
11.54
8.32
5.57
2.59
-1.35
-6.68
-13.41
-21.15
-29.33
-37.40
-44.94
-51.48
-56.35
-58.62
-57.28
-51.66
-41.76
-28.43
-13.13
2.48
16.98
29.35
38.93
45.37
48.60
48.87
46.90
43.72
40.34
37.34
34.57
31.21
26.28
19.10
9.77
-0.93
-11.91
-22.32
-31.81
-40.52
-48.78
-56.69
-63.99
-70.20
-75.00
-78.44
-80.98
-83.13
-85.08
-86.34
-85.86
-82.45
-75.24
-64.07
-49.51
-32.70
-15.00
2.24
17.91
31.23
41.72
49.28
54.13
56.77
57.89
58.26
58.54
59.14
60.12
61.10
61.46
60.50
57.85
53.55
48.05
41.87
35.34
28.40
20.79
12.35
3.39
-5.17
-12.16
-16.65
-18.51
-18.48
-17.82
-17.65
-18.37
-19.41
-19.52
-17.35
-11.96
-3.21
8.27
21.37
34.89
47.80
59.40
69.32
77.38
83.54
87.75
90.04
90.47
89.28
86.92
83.83
80.29
76.32
71.79
66.65
61.19
56.04
51.91
49.18
47.51
45.97
43.31
38.58
31.44
22.25
11.87
1.27
-8.70
-17.42
-24.50
-29.79
-33.40
-35.77
-37.43
-38.84
-40.02
-40.40
-39.11
-35.41
-29.22
-21.33
-13.20
-6.27
-1.41
1.43
2.96
3.99
4.94
5.68
5.79
5.09
3.88
2.89
2.81
3.95
6.09
8.74
11.55
14.47
17.82
21.82
26.47
31.34
35.83
39.36
41.54
42.22
41.37
39.00
35.08
29.53
22.22
13.11
2.37
-9.34
-20.79
-30.30
-36.13
-37.10
-32.93
-24.40
-13.04
-0.55
11.69
22.91
32.94
42.01
50.44
58.42
65.91
72.50
77.65
80.78
81.62
80.30
77.29
73.25
68.75
64.08
59.28
54.21
48.74
42.73
36.05
28.54
20.02
10.52
0.37
-9.61
-18.31
-24.67
-28.01
-28.34
-26.32
-23.02
-19.46
-16.22
-13.22
-9.71
-4.51
3.51
15.05
30.01
47.49
66.08
84.19
100.44
113.78
123.36
128.38
128.16
122.48
111.94
98.11
83.08
68.63
55.52
43.22
30.45
16.10
0.02
-16.82
-32.78
-46.39
-57.03
-64.95
-70.98
-75.93
-80.21
-83.79
-86.41
-87.90
-88.33
-87.96
-87.15
-86.14
-85.04
-83.86
-82.69
-81.71
-81.27
-81.62
-82.72
-83.97
-84.16
-81.66
-74.90
-62.92
-45.77
-24.66
-1.71
20.61
39.96
54.61
63.60
66.76
64.48
57.65
47.55
35.79
24.19
14.38
7.41
3.53
2.10
1.92
1.74
0.54
-2.15
-6.36
-11.84
-18.27
-25.31
-32.59
-39.67
-46.08
-51.42
-55.55
-58.68
-61.32
-63.95
-66.75
-69.30
-70.50
-68.86
-63.01
-52.19
-36.49
-16.82
5.53
29.12
52.62
74.72
94.09
109.34
119.32
123.50
122.10
116.14
106.93
95.67
83.11
69.59
55.23
40.17
24.75
9.32
-5.70
-19.92
-32.82
-43.73
-51.94
-56.96
-58.71
-57.67
-54.69
-50.76
-46.87
-43.84
-42.41
-43.23
-46.59
-52.09
-58.44
-63.63
-65.52
-62.64
-54.77
-42.97
-29.11
-15.10
-2.26
8.89
18.36
26.34
32.80
37.52
40.33
41.41
41.42
41.30
41.90
43.67
46.72
50.93
56.16
62.27
68.94
75.56
81.27
85.31
87.35
87.60
86.63
84.92
82.47
78.68
72.58
63.27
50.39
34.34
16.27
-2.17
-19.13
-33.11
-43.26
-49.63
-53.03
-54.68
-55.75
-57.08
-59.10
-62.04
-65.98
-70.84
-76.14
-80.98
-84.33
-85.49
-84.55
-82.47
-80.65
-80.21
-81.42
-83.55
-85.28
-85.41
-83.45
-79.69
-74.88
-69.72
-64.53
-59.30
-53.94
-48.50
-43.17
-38.10
-33.31
-28.69
-24.30
-20.48
-17.77
-16.50
-16.34
-16.10
-13.97
-8.20
2.21
17.02
34.86
53.57
70.93
85.15
95.19
100.79
102.28
100.31
95.53
88.46
79.44
68.65
56.22
42.38
27.34
11.45
-4.75
-20.38
-34.19
-44.84
-51.29
-53.34
-51.82
-48.32
-44.44
-41.11
-38.17
-34.70
-29.87
-23.79
-17.75
-13.71
-13.17
-16.23
-21.28
-25.76
-27.25
-24.61
-18.26
-9.80
-1.16
6.23
11.77
15.57
17.94
19.22
19.57
19.21
18.49
17.95
18.07
19.10
20.86
22.80
24.26
24.66
23.79
21.84
19.21
16.31
13.31
10.14
6.60
2.62
-1.69
-6.03
-10.03
-13.47
-16.34
-18.89
-21.52
-24.70
-28.86
-34.24
-40.79
-48.00
-54.95
-60.50
-63.65
-63.88
-61.28
-56.48
-50.32
-43.67
-37.26
-31.76
-27.70
-25.35
-24.58
-24.76
-24.97
-24.36
-22.55
-19.77
-16.66
-13.83
-11.51
-9.49
-7.33
-4.77
-1.85
1.03
3.37
4.85
5.41
5.18
4.35
3.11
1.57
-0.10
-1.61
-2.62
-2.86
-2.30
-1.21
0.06
1.45
3.43
7.02
13.40
23.34
36.70
52.32
68.28
82.48
93.22
99.58
101.50
99.56
94.70
87.97
80.32
72.50
64.99
57.96
51.24
44.45
37.11
28.90
19.82
10.31
1.16
-6.69
-12.50
-16.02
-17.59
-17.99
-18.17
-19.00
-20.99
-24.27
-28.59
-33.51
-38.55
-43.30
-47.53
-51.18
-54.37
-57.34
-60.30
-63.28
-66.05
-68.14
-68.80
-67.32
-63.22
-56.49
-47.65
-37.71
-27.87
-19.28
-12.69
-8.40
-6.21
-5.56
-5.63
-5.63
-5.00
-3.60
-1.69
0.17
1.43
1.86
1.60
1.11
0.81
0.90
1.28
1.73
2.11
2.50
3.03
3.70
4.24
4.18
3.16
1.26
-0.92
-2.36
-2.12
0.34
4.88
10.81
17.26
23.50
29.13
34.06
38.27
41.58
43.57
43.78
42.03
38.73
34.83
31.52
29.67
29.41
30.14
30.87
30.84
29.88
28.50
27.45
27.26
27.95
29.02
29.87
30.13
29.78
28.99
27.82
26.04
23.20
19.05
13.78
8.16
3.32
0.26
-0.48
1.02
4.17
8.11
11.93
14.70
15.60
14.04
9.98
4.18
-1.85
-6.43
-8.40
-7.68
-5.21
-2.38
-0.14
1.55
3.60
7.13
12.73
20.03
28.02
35.61
42.26
48.11
53.58
58.93
63.95
68.09
70.92
72.53
73.68
75.50
78.93
84.27
90.94
97.66
103.09
106.35
107.39
106.99
106.35
106.51
107.86
109.92
111.51
111.12
107.33
99.21
86.62
70.24
51.46
32.04
13.59
-2.89
-17.31
-30.39
-43.27
-56.95
-71.80
-87.53
-103.39
-118.54
-132.27
-144.18
-154.06
-161.86
-167.63
-171.47
-173.48
-173.68
-171.96
-168.05
-161.68
-152.70
-141.31
-128.18
-114.34
-101.01
-89.28
-79.81
-72.66
-67.22
-62.39
-56.90
-49.83
-41.00
-31.05
-21.20
-12.82
-6.74
-3.07
-1.08
0.34
2.28
5.44
10.10
16.22
23.60
31.78
40.01
47.22
52.28
54.35
53.18
49.11
42.82
35.00
26.15
16.73
7.36
-1.08
-7.69
-11.89
-13.70
-13.51
-11.75
-8.62
-4.05
1.94
8.92
15.96
21.83
25.42
25.95
22.98
16.29
5.85
-8.01
-24.23
-40.89
-55.54
-65.90
-70.76
-70.38
-66.44
-61.38
-57.47
-56.24
-58.11
-62.69
-69.12
-76.40
-83.54
-89.52
-93.38
-94.47
-92.70
-88.68
-83.46
-77.96
-72.49
-66.71
-59.98
-52.02
-43.22
-34.46
-26.60
-19.87
-13.81
-7.72
-1.23
5.44
11.64
16.96
21.62
26.44
32.29
39.39
47.01
53.72
58.18
59.68
58.50
55.50
51.67
47.65
43.60
39.48
35.29
31.19
27.32
23.67
19.91
15.67
10.78
5.53
0.44
-4.01
-7.78
-11.31
-15.09
-19.37
-23.92
-28.30
-32.30
-36.17
-40.41
-45.14
-49.64
-52.30
-51.28
-45.39
-34.62
-20.23
-4.06
12.08
26.92
39.71
49.98
57.38
61.67
63.02
62.04
59.67
56.82
54.10
51.73
49.63
47.75
46.08
44.73
43.70
42.84
41.87
40.52
38.62
36.28
33.84
31.73
30.26
29.41
28.76
27.56
25.01
20.59
14.27
6.46
-2.27
-11.41
-20.70
-29.96
-38.82
-46.51
-52.04
-54.44
-53.22
-48.54
-41.16
-32.16
-22.81
-14.35
-8.00
-4.75
-5.12
-8.89
-15.02
-21.97
-28.20
-32.78
-35.50
-36.58
-36.13
-33.78
-28.72
-20.25
-8.41
5.76
20.46
33.77
44.43
52.07
57.11
60.30
62.32
63.51
64.02
63.91
63.25
62.03
60.10
57.12
52.68
46.44
38.36
28.96
19.31
10.87
5.13
3.09
4.80
9.35
15.24
20.93
25.25
27.63
28.12
27.24
25.90
25.11
25.67
27.79
30.99
34.20
36.39
37.15
36.92
36.65
37.09
38.20
39.10
38.59
35.96
31.38
25.84
20.58
16.42
13.52
11.27
8.54
4.09
-3.07
-13.21
-25.65
-38.83
-50.75
-59.68
-64.85
-66.69
-66.48
-65.69
-65.26
-65.38
-65.71
-65.88
-65.93
-66.31
-67.53
-69.70
-72.43
-75.05
-77.28
-79.55
-82.84
-88.13
-95.42
-103.25
-108.73
-108.43
-99.74
-82.10
-57.42
-29.34
-2.00
21.45
39.56
52.48
61.20
66.49
68.37
66.15
59.03
46.82
30.40
11.74
-6.65
-22.32
-33.20
-37.70
-34.60
-22.85
-1.84
28.22
65.74
107.67
149.97
188.59
220.62
244.86
261.59
271.74
276.04
274.58
267.09
253.63
235.25
214.14
192.91
173.49
156.06
138.53
116.97
87.03
45.97
-5.54
-62.81
-118.37
-164.55
-196.31
-212.75
-216.62
-212.30
-203.47
-192.03
-178.45
-163.08
-147.11
-132.45
-120.63
-111.45
-102.47
-89.69
-68.90
-37.11
6.59
60.89
122.44
186.52
248.08
302.79
347.91
382.54
407.17
422.83
430.36
430.25
422.96
409.39
390.99
369.41
345.94
321.13
294.91
267.01
237.51
207.05
176.68
147.60
120.72
96.48
74.81
55.17
36.80
19.11
2.13
-13.08
-24.62
-30.57
-30.02
-24.04
-15.65
-8.87
-7.31
-12.74
-24.79
-41.61
-61.11
-82.11
-104.67
-129.69
-158.00
-189.79
-224.64
-261.87
-300.90
-341.36
-382.79
-424.25
-464.08
-500.04
-530.06
-552.70
-567.45
-574.22
-572.60
-561.43
-539.07
-504.43
-458.06
-402.59
-342.16
-281.07
-222.45
-167.80
-117.51
-71.92
-31.99
0.79
25.18
41.17
50.13
54.12
54.87
52.91
47.45
36.99
20.39
-2.53
-30.72
-62.15
-94.19
-123.69
-147.02
-160.27
-160.03
-144.57
-114.98
-75.11
-30.55
13.04
51.45
82.28
104.26
116.32
117.51
107.69
88.60
64.09
39.20
18.27
3.47
-5.52
-10.58
-13.65
-15.82
-17.23
-17.85
-17.90
-17.47
-15.79
-11.00
-0.79
15.99
38.03
61.34
80.63
91.36
91.41
81.24
63.04
39.11
11.02
-20.35
-53.79
-87.01
-116.63
-138.91
-151.06
-152.06
-143.21
-128.00
-111.51
-98.99
-94.13
-97.66
-106.82
-116.40
-120.76
-116.23
-102.34
-81.63
-57.94
-34.38
-11.93
10.42
34.52
61.73
91.90
123.52
154.32
182.15
205.85
225.62
242.98
260.26
279.80
302.80
328.38
353.17
371.97
379.38
372.06
350.35
318.28
282.07
247.41
217.38
191.87
168.77
145.80
121.74
96.51
70.05
41.47
8.88
-29.56
-74.58
-125.56
-181.23
-240.83
-304.20
-370.82
-437.93
-499.47
-546.89
-571.81
-569.38
-540.32
-490.58
-428.60
-362.05
-295.43
-229.64
-163.35
-94.88
-23.16
52.43
132.71
218.52
309.34
401.67
488.33
559.85
607.31
625.69
615.69
583.22
536.80
484.47
431.59
380.34
330.78
282.20
233.93
185.48
136.26
85.26
31.17
-27.11
-89.65
-154.83
-218.87
-276.33
-321.34
-349.31
-358.22
-348.85
-323.77
-286.00
-237.79
-180.96
-118.30
-54.89
1.47
41.44
56.64
42.53
0.68
-60.69
-128.17
-186.55
-222.84
-229.73
-206.83
-159.32
-95.19
-22.51
51.59
120.78
178.42
217.61
232.57
220.64
183.39
125.90
54.86
-23.15
-102.04
-175.37
-235.77
-276.14
-291.81
-282.67
-253.73
-212.91
-167.64
-122.01
-75.85
-26.13
30.64
95.94
167.89
241.15
308.05
360.33
391.28
397.67
380.66
345.32
298.46
246.25
192.03
135.91
76.29
12.44
-53.15
-114.05
-161.46
-187.15
-186.30
-158.78
-108.51
-41.60
35.36
115.90
193.14
259.24
306.05
327.05
319.95
287.99
239.21
183.68
130.17
83.93
46.37
16.40
-8.21
-29.54
-49.18
-68.36
-87.91
-108.04
-128.14
-146.80
-162.16
-172.56
-177.13
-176.07
-170.53
-162.21
-152.73
-143.33
-134.75
-127.22
-120.69
-114.74
-108.67
-101.53
-92.40
-80.99
-67.94
-54.92
-43.96
-36.68
-33.42
-33.10
-33.89
-34.12
-32.94
-30.38
-26.83
-22.73
-18.87
-16.84
-19.11
-28.28
-45.56
-69.91
-98.44
-128.01
-157.23
-187.14
-220.07
-257.21
-296.62
-332.91
-359.16
-369.86
-362.98
-340.25
-305.66
-263.11
-214.86
-161.38
-102.39
-38.47
27.77
91.66
147.42
189.57
214.44
220.95
210.55
186.49
152.81
113.63
73.02
34.96
3.22
-19.10
-30.41
-31.11
-23.45
-10.81
3.52
17.41
30.36
43.33
57.99
75.56
96.19
119.01
142.47
165.14
186.04
204.73
221.12
235.27
247.34
257.52
266.05
272.82
277.29
278.52
275.80
269.23
260.15
250.56
242.05
234.67
226.61
215.03
197.58
173.78
145.35
115.41
86.98
61.78
39.90
20.31
1.96
-15.66
-32.35
-47.55
-60.84
-72.20
-81.88
-90.11
-96.84
-101.77
-104.68
-105.75
-105.64
-105.28
-105.53
-106.78
-108.81
-111.00
-112.68
-113.52
-113.68
-113.63
-113.77
-113.95
-113.24
-110.17
-103.45
-92.66
-78.82
-64.24
-51.85
-44.41
-43.70
-50.03
-62.16
-77.38
-91.86
-101.24
-101.68
-91.11
-70.24
-42.95
-15.28
6.41
17.62
16.97
6.16
-11.26
-31.50
-51.66
-69.86
-84.47
-93.25
-92.97
-80.09
-52.18
-9.52
44.13
102.09
156.54
200.58
229.84
242.98
241.09
226.47
201.76
169.45
131.87
91.59
51.39
13.90
-19.09
-47.20
-71.70
-94.97
-119.62
-147.38
-178.32
-210.51
-240.61
-265.16
-282.10
-291.74
-296.45
-299.27
-301.75
-302.60
-297.94
-283.02
-255.08
-215.23
-168.69
-123.05
-85.48
-60.27
-48.03
-46.56
-52.43
-62.25
-72.92
-81.31
-84.31
-79.41
-65.84
-45.19
-21.05
2.41
22.05
36.55
45.96
50.46
49.44
41.77
26.87
6.21
-16.07
-33.95
-41.30
-33.41
-8.20
33.30
86.70
144.34
196.19
231.88
243.73
229.35
192.53
141.83
87.57
39.15
3.66
-14.04
-11.02
13.39
56.64
112.43
171.98
227.14
273.59
312.25
347.63
383.95
421.78
457.15
483.28
493.86
485.73
459.41
417.90
365.06
304.72
240.33
175.37
113.03
55.49
2.95
-46.78
-97.78
-154.65
-220.56
-295.38
-374.50
-449.24
-508.45
-541.54
-542.15
-511.12
-457.08
-393.88
-335.32
-289.32
-254.52
-221.29
-177.37
-115.14
-36.55
46.93
119.58
168.71
189.87
187.50
171.33
151.34
133.95
121.63
114.89
114.63
122.73
140.82
168.60
202.72
237.17
265.11
280.89
281.29
265.61
235.36
193.91
146.49
100.24
63.81
45.72
51.56
81.08
126.91
175.91
213.36
228.07
216.01
180.75
130.58
74.29
17.71
-37.15
-90.74
-143.85
-196.54
-248.56
-300.39
-353.27
-407.84
-462.20
-510.76
-545.30
-557.97
-544.58
-506.58
-450.49
-385.15
-318.92
-257.50
-203.50
-157.37
-118.14
-83.77
-51.19
-16.82
22.16
66.42
113.60
158.77
196.04
220.11
227.61
217.44
190.82
150.89
102.21
49.97
-1.01
-46.93
-85.10
-113.37
-129.38
-130.15
-112.68
-75.43
-20.22
46.66
115.07
173.67
212.86
227.24
216.86
187.04
146.90
107.22
77.83
64.81
69.04
86.14
108.05
125.63
131.62
122.92
101.31
72.28
42.81
19.12
5.56
4.95
19.25
49.43
94.16
148.50
203.32
247.13
269.54
265.03
234.85
186.35
129.44
72.57
20.38
-26.99
-72.33
-119.51
-171.86
-230.72
-294.10
-356.47
-409.81
-446.35
-461.88
-457.62
-439.50
-414.76
-388.10
-359.63
-326.03
-283.79
-232.29
-174.64
-115.91
-60.05
-7.76
43.55
97.88
158.47
226.56
301.37
380.17
458.60
530.67
589.23
627.69
641.77
631.21
599.97
554.77
502.68
449.16
397.18
347.89
301.63
258.73
219.36
183.04
148.26
112.99
75.59
35.81
-5.11
-45.03
-82.17
-116.33
-149.38
-184.61
-225.15
-271.98
-322.52
-370.50
-407.64
-426.80
-425.07
-405.13
-374.30
-341.78
-315.56
-300.45
-297.59
-305.03
-318.72
-333.76
-345.46
-350.30
-346.70
-335.19
-318.04
-298.19
-278.13
-259.24
-241.94
-226.56
-214.22
-207.10
-207.53
-216.63
-232.90
-251.80
-266.44
-269.51
-255.95
-224.69
-178.90
-124.34
-66.88
-10.40
43.79
96.51
149.74
205.99
267.61
335.67
408.68
481.50
545.96
593.40
618.05
619.49
602.41
574.01
540.44
504.68
466.57
424.88
379.20
330.41
279.69
227.21
172.13
114.21
55.63
1.62
-41.32
-68.45
-79.44
-78.87
-74.37
-73.30
-79.76
-93.52
-111.07
-127.98
-141.22
-150.31
-156.94
-164.02
-174.86
-192.56
-219.47
-256.13
-300.12
-345.75
-385.14
-410.68
-417.81
-406.55
-381.02
-347.04
-309.48
-270.56
-230.41
-188.73
-146.38
-105.53
-68.14
-33.92
0.64
40.88
90.85
149.89
210.99
262.23
290.63
286.83
248.19
179.38
90.38
-6.69
-100.37
-181.46
-243.50
-282.85
-298.69
-293.08
-270.54
-236.93
-197.93
-157.74
-118.58
-81.18
-45.66
-11.68
21.32
54.51
89.94
130.39
178.58
235.56
299.35
363.91
420.07
458.00
470.55
455.48
415.79
358.07
290.35
220.50
155.90
103.82
70.86
61.43
75.84
109.50
154.14
200.60
241.46
271.98
289.62
292.47
278.94
248.50
202.86
146.29
84.48
22.74
-35.72
-90.07
-141.11
-190.13
-237.71
-283.06
-323.95
-357.11
-378.78
-385.95
-377.69
-356.09
-326.04
-293.92
-265.73
-245.11
-232.51
-225.32
-219.03
-208.80
-190.88
-163.43
-126.82
-83.18
-35.36
13.92
62.50
108.58
150.53
186.53
214.49
232.36
238.50
232.21
214.36
187.47
155.67
124.16
98.66
84.57
85.84
103.64
135.36
174.41
211.35
236.69
243.50
229.44
196.87
151.30
98.84
43.93
-11.14
-65.15
-116.13
-159.97
-190.73
-202.49
-191.85
-160.03
-113.52
-62.26
-16.56
16.58
35.99
46.08
53.85
64.96
80.71
97.63
109.52
110.72
98.71
75.27
46.12
19.13
1.90
-0.20
14.39
43.12
80.14
118.06
150.08
171.38
179.69
174.70
157.23
128.47
89.91
43.41
-8.45
-62.63
-115.98
-165.37
-207.77
-240.57
-262.18
-272.50
-273.09
-266.57
-255.63
-242.26
-227.71
-213.02
-199.29
-187.58
-177.81
-168.01
-154.87
-135.72
-110.89
-84.61
-63.56
-53.38
-55.32
-64.97
-73.71
-72.29
-54.41
-18.85
30.46
86.02
139.50
184.37
217.87
241.23
258.08
271.85
282.98
288.01
281.06
257.41
216.84
164.90
110.74
63.01
26.46
1.03
-16.23
-28.06
-35.05
-35.78
-28.76
-14.19
5.30
25.48
42.17
52.61
56.12
53.88
48.30
42.08
37.31
34.61
32.78
29.36
22.13
10.71
-2.91
-15.37
-24.17
-29.54
-34.78
-44.54
-62.47
-89.70
-125.02
-166.21
-210.99
-256.66
-299.03
-331.93
-348.41
-343.48
-316.90
-273.79
-222.66
-171.85
-126.17
-85.84
-47.73
-7.93
36.33
86.05
140.76
198.98
257.98
313.49
359.89
391.46
404.13
396.83
371.44
331.65
281.43
224.15
163.12
102.91
50.12
12.57
-3.35
4.45
32.11
70.76
109.76
140.42
158.68
165.67
165.92
164.48
164.51
166.13
167.05
164.14
155.14
139.90
120.63
101.11
85.28
75.67
71.98
70.95
67.55
57.08
36.96
7.59
-28.49
-68.40
-110.53
-155.28
-204.61
-260.85
-325.13
-396.11
-469.47
-538.38
-594.94
-632.21
-646.37
-637.73
-610.40
-570.60
-524.29
-475.58
-426.58
-378.16
-331.27
-287.49
-248.21
-213.56
-181.53
-148.17
-108.95
-60.77
-3.90
57.56
116.42
165.30
199.79
220.67
233.95
248.45
272.30
309.70
359.47
415.85
470.92
517.19
549.62
566.28
567.90
556.98
536.98
511.74
485.02
460.05
438.93
422.12
408.15
393.78
375.16
349.23
315.04
274.16
230.05
186.63
146.94
112.37
82.81
57.37
34.94
14.62
-4.24
-22.07
-39.13
-55.83
-73.05
-92.07
-114.13
-139.30
-165.78
-190.34
-209.95
-223.40
-231.65
-236.79
-240.24
-241.41
-237.94
-227.47
-209.49
-186.21
-161.65
-139.84
-123.27
-112.69
-108.00
-109.59
-118.86
-137.39
-165.19
-199.27
-233.49
-260.01
-272.25
-267.52
-248.05
-219.98
-190.19
-162.66
-136.74
-108.04
-71.57
-25.14
28.66
83.22
130.86
166.28
188.43
200.13
205.73
208.36
208.20
202.49
187.43
160.36
121.36
73.10
19.48
-35.91
-90.40
-141.73
-187.19
-223.37
-246.80
-255.02
-247.73
-227.13
-197.39
-163.36
-129.53
-99.10
-73.18
-51.14
-31.50
-13.24
3.18
15.72
21.84
19.88
10.17
-5.17
-23.33
-41.97
-59.50
-74.37
-84.25
-86.06
-77.21
-57.09
-28.03
5.37
38.02
66.22
88.51
105.28
117.38
124.73
126.05
119.39
103.06
76.98
42.99
4.57
-33.51
-65.44
-85.24
-87.63
-69.97
-34.22
12.19
57.85
91.17
105.00
99.27
80.13
56.33
35.10
19.99
11.60
9.64
14.22
25.07
39.63
52.15
55.12
42.88
15.20
-21.87
-58.80
-87.07
-102.98
-108.45
-108.83
-109.46
-113.28
-120.33
-128.60
-135.73
-140.07
-141.08
-139.16
-135.05
-129.26
-121.85
-112.43
-100.48
-85.95
-69.74
-53.61
-39.71
-29.69
-23.94
-21.42
-20.29
-18.86
-16.42
-13.68
-12.50
-15.37
-24.67
-42.13
-68.25
-101.95
-140.12
-177.89
-209.44
-229.59
-235.28
-226.55
-206.22
-178.63
-147.92
-116.81
-86.50
-57.35
-29.66
-4.08
18.74
39.00
58.09
78.50
103.00
133.84
172.22
217.96
269.42
323.23
374.36
416.95
445.62
457.32
452.43
434.53
408.81
379.85
350.01
319.20
286.21
250.47
213.08
176.45
142.79
112.58
84.01
54.15
20.68
-16.82
-56.81
-96.68
-134.13
-168.02
-198.17
-224.64
-246.99
-264.07
-274.50
-277.50
-273.25
-262.95
-248.40
-231.36
-213.24
-194.96
-176.94
-159.23
-141.71
-124.31
-107.13
-90.42
-74.37
-59.01
-44.26
-30.18
-17.06
-5.30
4.71
12.84
19.30
24.54
29.11
33.47
37.82
42.02
45.52
47.50
47.13
44.00
38.32
30.85
22.48
13.82
5.00
-4.16
-13.67
-22.99
-30.95
-36.19
-37.54
-34.35
-26.60
-14.83
-0.00
16.50
33.05
48.05
60.26
69.10
74.66
77.45
78.09
77.11
74.89
71.80
68.30
64.88
61.96
59.73
58.02
56.47
54.57
51.89
48.20
43.53
38.20
32.68
27.41
22.59
18.06
13.35
7.84
1.01
-7.29
-16.84
-26.98
-36.84
-45.42
-51.85
-55.57
-56.37
-54.31
-49.59
-42.30
-32.48
-20.34
-6.67
7.09
19.22
28.50
34.92
39.80
44.88
51.13
57.95
63.36
65.42
63.38
57.80
49.35
37.40
19.89
-5.15
-37.11
-71.85
-103.11
-126.04
-140.06
-149.13
-158.67
-171.50
-185.53
-194.87
-193.49
-178.75
-152.65
-120.47
-88.04
-59.91
-39.22
-28.36
-29.29
-42.66
-66.52
-96.03
-124.56
-145.95
-156.35
-155.02
-143.42
-124.09
-99.46
-71.46
-41.58
-10.88
19.95
50.50
80.50
109.76
137.95
164.71
189.84
213.44
236.19
259.46
285.48
316.84
355.26
400.01
446.79
488.08
515.35
522.19
506.88
473.05
427.99
379.48
332.92
290.27
250.81
213.08
176.32
140.69
106.36
72.35
36.43
-3.70
-48.49
-95.32
-138.84
-172.67
-192.04
-195.38
-184.59
-163.94
-138.60
-113.44
-92.56
-79.08
-74.72
-79.32
-90.47
-104.20
-116.50
-124.82
-128.57
-128.11
-123.01
-111.32
-90.47
-59.09
-18.98
24.61
64.42
93.29
106.00
100.11
75.86
35.76
-15.31
-70.48
-121.78
-162.00
-186.88
-196.26
-193.67
-184.62
-174.98
-169.58
-171.50
-181.73
-198.91
-219.72
-239.90
-255.53
-264.17
-265.14
-258.72
-244.99
-223.22
-192.36
-152.39
-105.20
-54.60
-4.86
41.00
82.06
119.24
153.98
187.41
220.19
253.22
288.22
327.32
371.87
420.78
469.55
510.74
536.09
539.33
518.63
477.47
423.61
366.64
315.07
274.25
245.51
226.78
213.90
202.17
187.71
168.10
142.67
112.08
77.91
42.47
8.56
-21.06
-44.38
-60.93
-72.30
-81.68
-92.64
-107.34
-125.18
-142.78
-155.28
-158.54
-150.85
-133.29
-108.68
-79.95
-49.04
-17.02
14.74
43.41
64.67
74.02
68.74
49.57
20.71
-11.85
-42.76
-69.44
-92.67
-115.80
-143.26
-178.73
-223.52
-275.56
-329.09
-375.47
-405.09
-410.32
-388.09
-341.41
-278.72
-211.54
-151.33
-106.41
-80.16
-70.56
-71.53
-75.02
-73.47
-61.46
-36.32
2.01
51.42
107.72
164.62
213.76
246.11
254.43
236.15
194.87
139.24
79.61
23.68
-26.20
-72.51
-119.19
-168.10
-217.26
-261.81
-297.16
-321.40
-335.60
-341.96
-341.74
-334.62
-320.22
-300.26
-279.08
-261.87
-251.38
-245.69
-238.90
-224.63
-200.08
-167.85
-134.05
-104.26
-80.06
-58.62
-35.48
-8.24
21.07
46.55
61.51
61.99
48.84
27.43
5.63
-9.16
-12.52
-3.81
14.62
39.25
67.50
98.78
133.90
173.45
215.81
256.30
288.03
304.35
301.50
279.89
243.38
197.14
145.52
90.99
34.91
-21.10
-74.26
-120.87
-157.60
-182.63
-195.90
-198.23
-190.41
-172.94
-146.93
-115.29
-83.09
-56.28
-39.13
-31.95
-30.42
-27.50
-16.76
4.52
34.21
66.61
95.45
116.80
130.41
139.16
147.01
156.80
168.94
181.44
191.10
195.22
193.04
186.34
179.21
176.89
184.20
204.01
236.10
277.07
321.10
361.54
392.58
410.50
414.20
404.89
385.21
358.11
326.05
290.77
253.47
215.31
177.67
142.08
109.71
81.08
55.81
32.88
11.05
-10.90
-34.39
-61.22
-93.19
-131.08
-173.13
-214.27
-246.95
-263.46
-258.38
-230.20
-181.44
-117.54
-45.75
25.60
87.48
131.10
149.78
141.29
109.25
62.58
12.74
-30.18
-60.41
-77.70
-86.04
-91.18
-98.58
-112.23
-134.60
-166.68
-207.67
-253.84
-297.97
-330.11
-340.04
-321.54
-276.20
-214.52
-152.95
-107.74
-88.52
-95.35
-120.39
-152.92
-184.48
-211.07
-231.80
-245.82
-250.01
-239.50
-211.11
-167.07
-116.44
-72.58
-47.70
-47.52
-68.90
-101.53
-132.48
-151.56
-154.27
-141.87
-118.87
-89.72
-56.72
-20.21
19.53
60.36
97.86
126.77
143.17
145.95
136.95
119.76
98.19
75.41
54.04
36.52
25.31
22.13
26.93
37.47
50.16
61.69
70.63
78.04
86.56
98.80
115.63
135.28
153.68
165.50
165.51
149.76
116.67
67.71
7.81
-55.25
-112.58
-156.92
-185.19
-199.87
-208.04
-218.29
-237.02
-265.58
-299.88
-332.42
-355.88
-366.13
-363.22
-350.19
-330.57
-306.49
-278.32
-246.13
-211.53
-178.44
-151.94
-135.75
-129.70
-128.89
-125.44
-111.77
-84.07
-43.86
2.89
48.87
88.82
121.68
150.51
180.53
216.76
261.78
314.72
371.04
423.49
463.70
484.40
481.61
455.78
411.52
355.69
294.89
233.28
171.76
108.59
41.28
-31.20
-106.69
-179.40
-241.11
-283.61
-301.52
-294.08
-265.32
-222.35
-172.47
-121.23
-71.47
-24.00
21.27
64.34
104.95
142.54
176.25
204.63
225.53
236.84
237.58
229.08
214.88
199.82
188.20
182.16
181.10
182.04
180.96
173.99
158.48
133.54
100.09
60.61
18.77
-20.95
-53.99
-76.31
-85.55
-81.95
-68.30
-49.40
-30.52
-15.79
-7.07
-4.26
-6.33
-12.74
-23.78
-39.35
-57.41
-73.00
-79.10
-68.90
-38.96
9.24
69.14
130.75
184.03
221.30
238.09
232.91
206.77
162.97
107.73
49.57
-2.84
-41.56
-61.59
-63.07
-51.30
-34.50
-20.49
-12.50
-8.52
-3.67
9.97
40.23
90.19
155.85
226.53
288.04
328.76
341.56
322.45
274.02
204.43
124.06
44.56
-21.49
-61.91
-65.73
-29.43
36.75
115.38
188.56
242.36
271.60
280.40
265.04
226.81
190.80
168.00
152.34
139.78
127.83
115.95
104.52
93.74
85.04
79.10
72.62
63.87
54.42
46.26
40.83
38.37
37.89
39.21
41.82
42.34
38.77
31.62
21.67
9.52
-4.64
-20.87
-38.31
-55.95
-74.56
-94.36
-114.53
-134.69
-154.95
-175.87
-198.04
-221.11
-244.20
-266.96
-288.85
-309.62
-330.80
-355.73
-388.87
-433.50
-489.03
-549.77
-605.68
-644.70
-656.29
-635.23
-583.59
-510.35
-429.04
-354.37
-298.52
-268.23
-263.11
-275.59
-293.07
-301.21
-287.91
-246.14
-175.30
-80.80
27.66
138.01
237.66
315.57
363.91
379.39
363.65
322.67
265.03
200.36
137.88
85.63
49.75
33.56
36.48
53.17
74.73
91.28
96.01
88.39
74.98
66.70
73.76
99.93
139.74
180.09
205.49
204.54
174.80
123.26
63.07
8.39
-29.97
-47.22
-44.96
-29.93
-11.44
1.19
1.87
-10.18
-30.35
-50.60
-62.88
-62.40
-49.37
-28.06
-4.49
16.41
32.58
44.87
56.21
70.55
92.10
124.34
168.93
224.39
285.32
343.44
389.72
416.95
422.21
407.37
378.01
341.06
302.53
266.03
232.63
201.75
172.40
143.38
113.48
81.39
45.93
6.56
-36.32
-81.51
-127.66
-173.49
-218.03
-260.10
-297.69
-327.84
-347.24
-353.44
-345.90
-326.46
-298.83
-267.45
-236.14
-207.42
-182.42
-161.24
-143.40
-127.97
-113.73
-99.29
-83.82
-67.69
-52.74
-41.75
-37.13
-39.40
-46.65
-55.05
-60.37
-59.76
-52.76
-41.26
-28.54
-17.72
-10.66
-7.31
-6.10
-4.72
-1.13
5.74
15.78
27.97
40.91
53.27
64.16
73.23
80.47
85.97
89.76
91.63
91.20
88.37
83.75
78.66
74.68
72.64
71.67
69.10
61.35
45.63
21.41
-9.14
-41.92
-72.48
-97.34
-114.49
-123.17
-123.51
-116.55
-104.42
-90.34
-77.85
-69.71
-67.01
-69.00
-73.86
-79.56
-84.32
-86.46
-84.08
-74.79
-56.16
-26.68
13.37
61.44
113.12
163.05
205.98
237.79
256.23
261.29
254.97
240.48
220.89
197.90
171.45
140.25
103.02
59.69
11.82
-37.75
-85.85
-129.84
-167.96
-199.22
-222.82
-237.91
-243.55
-238.88
-223.49
-197.70
-162.41
-119.01
-69.23
-15.15
40.83
96.09
148.09
194.84
235.15
268.70
295.51
315.37
327.39
330.25
323.07
306.53
283.56
258.77
236.85
220.35
208.45
197.28
181.93
159.11
128.86
94.57
61.29
33.13
11.37
-5.68
-21.13
-37.60
-55.66
-73.92
-90.10
-102.66
-111.84
-119.76
-129.67
-144.62
-166.15
-193.01
-220.95
-243.49
-253.74
-246.68
-220.88
-178.83
-126.04
-69.16
-14.26
34.11
72.84
99.86
113.82
114.30
102.36
80.76
53.65
25.52
-0.06
-21.35
-38.83
-54.81
-72.56
-95.04
-123.79
-158.15
-195.28
-230.94
-260.58
-280.59
-289.14
-286.41
-274.39
-256.42
-236.72
-219.35
-207.22
-200.77
-197.40
-191.81
-177.92
-151.36
-111.51
-61.90
-8.44
43.50
91.74
137.73
184.58
233.86
283.38
327.29
358.55
372.32
368.07
349.18
320.62
286.09
246.15
198.91
142.24
76.66
6.47
-61.35
-119.90
-164.28
-192.30
-203.58
-198.61
-178.90
-148.42
-114.77
-88.33
-78.59
-89.46
-116.67
-149.26
-174.79
-185.18
-179.32
-161.09
-134.70
-100.70
-56.09
1.99
71.81
145.42
210.82
256.94
278.24
276.25
257.98
232.02
204.89
179.52
155.68
131.32
104.57
74.68
41.92
6.54
-32.05
-75.03
-122.82
-173.19
-220.43
-256.41
-273.39
-267.29
-239.24
-194.74
-140.58
-82.13
-22.46
36.01
89.15
130.36
152.48
151.36
128.74
92.29
52.29
17.19
-9.69
-30.16
-48.49
-67.76
-87.74
-105.33
-117.09
-121.73
-120.98
-118.46
-117.28
-118.18
-119.05
-116.10
-105.98
-87.54
-62.44
-34.11
-6.12
19.18
40.96
59.22
73.70
83.28
86.31
81.82
70.50
54.83
37.86
21.65
6.25
-9.80
-27.79
-47.39
-66.39
-82.38
-95.19
-108.26
-127.60
-158.54
-201.91
-252.33
-299.79
-333.89
-348.65
-344.80
-328.77
-308.91
-291.41
-278.09
-266.88
-254.11
-237.17
-215.80
-191.61
-166.70
-142.11
-117.22
-90.31
-59.51
-23.62
17.53
63.18
111.97
161.93
210.21
252.93
285.55
303.84
305.30
290.15
261.61
225.08
186.68
151.70
123.53
103.47
91.15
85.11
83.34
83.46
82.99
79.78
72.48
61.06
46.81
31.88
18.67
9.33
5.62
8.86
19.86
38.50
63.28
91.05
117.44
137.94
149.01
148.96
138.09
118.24
92.20
63.01
33.60
6.39
-17.25
-37.22
-54.74
-71.76
-89.94
-109.63
-129.24
-145.29
-153.50
-150.08
-133.21
-103.75
-65.16
-22.27
20.20
59.10
93.49
124.29
153.54
183.70
217.23
256.13
301.19
350.86
400.56
443.04
470.27
476.28
459.54
423.71
376.23
325.25
276.84
233.50
194.57
158.32
124.19
93.80
70.30
56.40
52.44
55.84
62.25
67.74
70.70
72.35
75.06
80.15
86.17
89.33
85.52
72.87
52.98
30.17
9.07
-7.64
-20.23
-31.02
-42.54
-55.88
-70.32
-84.08
-95.64
-105.00
-113.80
-124.62
-139.85
-160.50
-185.86
-213.95
-242.38
-269.41
-294.43
-317.94
-341.10
-365.18
-391.25
-419.63
-449.46
-478.01
-500.67
-511.66
-505.82
-480.40
-436.45
-378.51
-313.19
-246.97
-184.56
-128.42
-79.08
-36.22
0.87
33.18
62.47
91.48
123.82
163.38
212.89
272.29
337.33
399.87
450.10
480.20
487.51
475.58
452.32
425.85
400.81
376.76
349.33
313.59
267.42
213.11
156.68
105.30
64.66
37.46
23.46
20.73
26.90
39.32
54.70
68.31
74.39
68.07
48.40
19.91
-8.44
-27.18
-31.06
-21.62
-6.05
6.80
10.72
4.21
-11.08
-33.32
-62.44
-99.77
-145.37
-195.82
-244.57
-284.93
-313.60
-332.58
-347.39
-363.28
-381.50
-397.97
-405.50
-397.77
-372.95
-334.79
-291.04
-249.86
-216.63
-192.53
-175.03
-159.71
-142.29
-119.97
-92.20
-60.58
-27.76
3.71
32.67
59.93
87.97
119.78
157.85
203.49
256.69
315.99
377.92
436.60
483.83
510.90
511.57
485.27
438.41
382.75
331.01
291.82
266.63
250.38
234.94
213.68
184.57
150.21
115.66
85.20
60.40
39.92
20.80
0.28
-22.83
-48.37
-75.85
-105.33
-137.40
-172.50
-209.71
-246.09
-276.81
-297.09
-304.70
-301.97
-295.69
-294.34
-303.58
-322.56
-343.38
-354.18
-344.59
-310.51
-256.12
-191.68
-128.98
-77.01
-39.81
-17.31
-7.25
-6.88
-12.64
-19.21
-19.73
-8.07
17.76
53.48
89.35
114.32
121.28
110.04
86.44
58.09
30.16
3.50
-23.64
-51.82
-77.41
-93.00
-90.72
-66.44
-22.55
32.34
86.60
129.49
153.97
157.80
142.48
111.23
67.23
12.58
-51.26
-122.13
-195.76
-265.31
-322.52
-360.37
-375.53
-369.49
-347.83
-317.72
-285.19
-253.44
-222.85
-192.26
-160.77
-128.49
-96.37
-65.33
-35.28
-4.91
27.76
64.55
106.27
152.28
200.40
247.24
289.03
323.04
348.91
369.21
388.45
410.79
437.56
466.03
490.25
503.66
502.16
485.93
459.00
427.20
395.84
368.26
345.75
328.33
315.16
304.66
294.15
280.15
259.14
229.02
189.94
144.61
97.19
51.90
11.40
-23.92
-55.86
-87.51
-121.94
-161.04
-204.82
-251.18
-296.31
-335.49
-364.61
-381.57
-387.56
-387.09
-386.74
-392.55
-407.27
-428.66
-449.93
-462.51
-459.80
-439.90
-406.24
-365.33
-323.35
-283.24
-244.08
-201.89
-152.34
-92.92
-24.63
47.48
114.91
167.49
196.40
197.45
173.09
132.06
86.30
46.65
19.35
5.48
2.75
8.48
21.22
40.29
64.16
89.14
110.05
122.18
123.32
113.96
95.68
69.35
34.46
-9.37
-59.90
-110.74
-152.62
-176.11
-175.21
-149.45
-103.76
-46.43
13.48
68.20
112.26
142.93
160.23
166.89
167.64
168.01
172.52
183.18
198.82
215.73
229.18
235.10
231.54
219.17
201.02
181.35
164.34
152.76
147.30
146.66
148.10
148.44
144.82
135.53
120.17
99.75
76.29
52.06
28.72
6.52
-15.71
-39.89
-67.63
-99.35
-134.18
-170.38
-206.03
-239.47
-269.30
-294.14
-312.45
-322.43
-322.30
-310.57
-286.40
-250.12
-203.59
-150.27
-94.80
-42.11
3.75
40.46
67.42
85.27
95.22
98.81
98.06
95.79
95.35
99.68
110.02
125.10
141.33
154.06
159.44
155.88
144.29
127.31
107.74
87.28
66.21
43.93
20.21
-4.07
-27.01
-46.37
-60.32
-67.71
-67.74
-59.68
-42.89
-17.63
14.19
48.79
81.43
107.83
125.61
134.83
137.35
135.56
131.12
124.54
115.59
104.15
91.04
78.16
67.87
62.04
61.13
63.88
67.76
69.90
68.01
60.89
48.50
31.68
11.59
-10.58
-33.75
-56.66
-77.57
-94.18
-104.05
-105.55
-98.90
-86.66
-73.04
-62.15
-56.01
-53.52
-51.29
-45.89
-36.18
-24.17
-13.73
-7.93
-7.09
-8.64
-9.04
-6.42
-1.92
0.84
-2.30
-13.99
-34.51
-62.03
-93.63
-126.09
-156.24
-180.91
-196.93
-201.62
-193.83
-174.71
-147.85
-118.69
-93.25
-76.75
-72.53
-81.33
-101.44
-129.76
-163.32
-200.64
-241.86
-287.53
-336.64
-385.37
-427.43
-456.13
-467.20
-460.59
-440.42
-413.09
-384.48
-357.87
-333.63
-310.15
-285.58
-258.88
-230.00
-199.36
-167.49
-134.72
-101.35
-67.98
-35.36
-4.29
24.79
52.08
78.56
105.63
134.39
164.68
194.35
219.70
236.81
243.77
242.21
237.30
235.73
242.51
258.16
277.86
293.29
295.78
279.54
243.53
191.34
129.80
67.00
10.47
-34.16
-63.78
-78.07
-78.91
-69.37
-52.68
-31.59
-8.28
15.37
37.33
55.81
69.97
80.72
91.11
105.79
129.82
166.86
217.26
276.75
336.47
385.23
413.08
415.22
394.02
358.03
318.35
283.95
258.48
240.20
224.23
205.88
182.74
155.15
125.60
98.18
78.44
72.83
87.05
123.20
177.41
239.93
297.92
340.15
360.86
360.90
345.60
321.28
292.45
261.34
229.33
198.46
171.78
151.79
138.60
128.91
116.95
96.41
63.00
16.24
-39.95
-97.37
-145.36
-173.43
-174.84
-149.36
-104.20
-52.05
-6.69
21.81
29.94
20.36
-1.02
-28.60
-59.21
-91.72
-125.05
-156.41
-181.44
-196.04
-198.86
-192.62
-183.26
-177.71
-181.10
-195.53
-220.17
-252.42
-288.90
-325.65
-357.76
-379.45
-384.90
-370.16
-335.05
-283.91
-224.54
-165.58
-113.69
-72.27
-42.10
-23.06
-15.47
-19.93
-35.44
-57.26
-76.58
-83.06
-69.59
-36.40
8.11
50.99
80.82
93.13
91.46
83.78
76.73
71.10
61.37
39.26
-0.80
-57.45
-121.92
-181.90
-227.34
-254.91
-268.80
-277.45
-288.13
-302.66
-316.43
-321.16
-309.78
-280.56
-237.74
-189.10
-141.91
-100.03
-63.70
-31.45
-2.37
22.67
41.58
52.56
55.13
50.81
43.17
36.82
35.99
43.04
57.40
75.91
94.68
111.48
126.98
143.91
164.13
186.14
204.85
214.21
211.57
200.28
189.04
187.56
201.06
226.88
255.19
273.65
273.12
251.23
212.11
162.94
109.75
55.17
-0.80
-57.78
-112.54
-158.46
-187.75
-195.18
-180.73
-149.31
-108.13
-63.37
-18.44
25.06
64.89
96.38
112.62
106.82
75.34
19.30
-55.29
-139.08
-221.38
-291.91
-342.41
-367.70
-366.72
-342.77
-302.48
-253.86
-203.97
-157.40
-115.95
-79.78
-48.66
-22.58
-1.77
14.29
27.71
42.40
63.03
93.27
133.54
179.64
223.15
253.79
263.06
246.89
207.15
150.87
87.94
28.67
-17.82
-44.35
-46.19
-21.43
27.47
93.14
163.80
225.34
264.64
272.72
246.86
191.18
116.14
35.80
-34.67
-82.68
-101.53
-92.02
-61.72
-22.20
14.95
42.41
57.29
62.15
62.64
64.99
74.05
91.94
117.14
144.64
168.15
179.37
173.77
151.61
117.55
78.67
41.24
8.36
-20.50
-46.45
-73.98
-104.68
-138.32
-173.09
-206.08
-233.60
-251.51
-256.03
-242.64
-213.24
-169.94
-116.44
-56.64
6.53
71.44
136.89
187.38
234.01
268.70
285.40
279.90
251.60
204.22
144.86
81.48
20.07
-34.86
-86.00
-134.53
-179.23
-215.39
-236.64
-238.77
-223.31
-197.95
-171.82
-154.90
-149.11
-149.07
-145.77
-131.76
-105.12
-69.67
-31.89
4.28
36.74
67.90
101.42
139.32
180.69
222.00
258.83
287.72
307.94
320.20
327.35
332.39
336.65
339.05
336.32
324.80
302.59
271.37
235.68
201.45
173.08
151.24
132.70
112.14
85.09
50.00
8.86
-34.31
-75.79
-113.96
-149.94
-186.89
-228.52
-277.48
-334.06
-395.33
-455.32
-506.10
-539.99
-552.02
-541.74
-513.27
-473.50
-429.42
-385.81
-344.46
-305.12
-267.11
-230.49
-196.01
-164.17
-134.08
-103.28
-68.74
-28.53
16.85
64.15
108.22
144.05
168.65
182.18
187.38
188.01
186.90
184.78
180.57
172.60
160.06
143.67
125.15
106.10
87.19
68.23
49.12
30.87
16.05
8.18
10.60
25.42
53.07
92.74
142.63
199.81
259.79
316.14
361.14
387.53
390.80
370.75
331.74
281.00
226.18
173.22
125.23
82.67
44.26
8.04
-27.77
-64.08
-100.41
-134.59
-163.08
-181.85
-187.51
-178.20
-153.94
-116.40
-68.48
-13.91
42.92
97.12
143.86
179.18
200.92
209.12
205.73
193.63
175.31
152.21
124.70
92.87
57.63
21.44
-11.87
-38.15
-54.51
-60.77
-59.69
-56.09
-54.94
-59.59
-70.80
-86.91
-104.70
-120.57
-131.59
-136.17
-134.45
-128.23
-120.51
-114.30
-111.38
-111.41
-111.93
-109.35
-100.38
-83.15
-57.45
-24.25
14.82
57.60
101.14
141.61
174.79
197.18
207.15
205.56
195.45
181.17
167.25
157.40
153.58
155.51
160.35
163.35
159.16
143.61
115.10
75.13
27.80
-21.43
-66.89
-103.64
-128.09
-138.57
-136.04
-124.12
-108.34
-94.50
-86.56
-85.14
-87.50
-89.04
-85.70
-76.24
-63.18
-51.98
-49.01
-59.27
-84.65
-123.37
-170.63
-219.35
-261.56
-289.65
-298.27
-286.30
-258.49
-225.38
-200.59
-196.07
-217.10
-259.94
-313.33
-363.35
-398.90
-415.12
-413.35
-398.32
-374.98
-346.58
-314.94
-281.73
-249.29
-220.20
-195.67
-174.51
-153.14
-126.98
-92.44
-48.30
4.12
61.89
121.78
181.71
241.31
301.41
362.38
422.33
476.20
516.76
537.31
534.81
511.61
474.53
431.51
387.96
344.82
299.70
250.00
196.17
142.66
96.10
62.00
42.01
33.56
31.76
32.30
33.29
35.33
39.99
47.87
57.60
66.27
70.81
69.53
62.69
52.21
40.63
29.89
20.77
12.77
4.76
-4.35
-14.96
-26.54
-37.76
-46.59
-50.50
-46.78
-32.90
-7.15
30.54
77.81
129.76
179.67
220.61
247.24
257.08
250.68
230.69
200.39
162.44
118.30
68.78
14.98
-40.75
-94.65
-142.23
-179.55
-204.51
-217.37
-220.42
-216.85
-209.46
-199.86
-188.45
-175.03
-159.55
-142.74
-125.82
-110.03
-96.17
-84.35
-74.22
-65.25
