1649878361.00
64.000000
-0.00
-0.00
-0.00
-0.00
-0.00
-0.00
-0.00
-0.00
-0.00
-0.00
0.00
0.01
0.01
-0.00
-0.03
-0.05
-0.05
0.00
0.13
0.36
0.66
1.01
1.37
1.72
2.06
2.40
2.79
3.24
3.80
4.42
5.06
5.66
6.20
6.68
7.15
7.68
8.31
9.14
10.09
11.04
11.88
12.56
13.14
13.76
14.65
15.96
17.91
20.32
22.90
25.38
27.58
29.57
31.68
34.32
37.81
42.54
48.15
54.10
59.83
64.97
69.58
74.14
79.34
85.71
93.76
103.00
112.62
121.73
129.77
136.75
143.30
150.75
157.77
166.64
177.95
191.79
206.97
220.57
228.25
225.36
208.53
176.87
132.76
80.05
23.07
-34.94
-92.44
-149.16
-205.23
-260.37
-313.74
-363.87
-409.83
-450.91
-486.50
-515.74
-537.23
-549.22
-549.96
-538.37
-514.21
-478.67
-433.88
-382.45
-327.02
-269.84
-212.63
-156.66
-102.95
-52.37
-5.90
35.58
71.43
101.35
125.50
144.38
158.69
169.15
176.37
180.75
182.57
182.07
179.51
175.23
169.65
163.18
156.15
148.81
141.30
133.69
126.02
118.33
110.69
103.16
95.80
88.68
81.83
75.25
68.95
62.95
57.25
51.86
46.78
42.03
37.59
33.45
29.61
26.07
22.81
19.83
17.11
14.67
12.48
10.54
8.83
7.35
6.07
4.97
4.05
3.27
2.62
2.09
1.65
1.30
1.01
0.79
0.61
0.48
0.37
0.28
0.22
0.18
0.14
0.12
0.10
0.09
0.09
0.10
0.11
0.12
0.15
0.17
0.21
0.24
0.28
0.32
0.37
0.41
0.46
0.50
0.55
0.60
0.67
0.74
0.82
0.88
0.92
0.93
0.92
0.91
0.93
1.01
1.14
1.31
1.49
1.67
1.82
1.96
2.11
2.30
2.58
2.93
3.34
3.76
4.13
4.44
4.69
4.96
5.34
5.87
6.58
7.39
8.16
8.78
9.19
9.41
9.63
10.04
10.83
12.00
13.37
14.65
15.52
15.80
15.49
14.85
14.12
13.51
12.91
11.97
10.14
6.94
2.20
-3.91
-10.73
-17.48
-23.56
-28.64
-32.82
-36.46
-39.94
-43.62
-47.83
-52.69
-58.01
-62.87
-65.62
-64.26
-57.36
-44.94
-28.85
-12.32
1.34
9.98
13.37
12.81
10.22
7.14
4.31
1.80
-0.43
-2.21
-3.13
-3.02
-2.22
-1.42
-1.19
-1.67
-2.38
-2.59
-1.82
0.03
2.30
3.91
3.84
1.57
-2.73
-8.38
-14.58
-20.76
-26.29
-31.01
-35.08
-38.80
-42.52
-46.46
-50.38
-53.40
-53.88
-49.25
-37.45
-17.86
8.15
37.57
66.80
93.16
115.99
132.93
144.28
151.40
155.75
158.31
159.38
158.88
156.69
152.78
147.24
140.75
133.84
126.79
119.65
112.36
104.75
96.69
88.08
78.74
68.86
58.36
46.91
34.13
19.84
4.37
-11.51
-26.79
-40.83
-53.46
-65.55
-78.68
-94.54
-114.05
-136.90
-161.41
-184.97
-204.73
-218.10
-223.33
-219.58
-206.94
-186.34
-159.42
-128.45
-96.01
-64.62
-36.23
-11.93
7.96
23.62
35.21
42.61
45.32
42.86
35.25
23.40
9.11
-5.28
-17.53
-26.07
-30.33
-30.69
-28.07
-23.56
-18.09
-12.29
-6.65
-1.55
2.58
5.33
6.43
5.87
3.97
1.24
-1.71
-4.41
-6.68
-8.67
-10.75
-13.44
-17.26
-22.65
-29.86
-38.89
-49.29
-60.11
-69.84
-76.71
-79.05
-75.72
-66.39
-51.72
-33.14
-12.63
7.74
26.22
41.66
53.69
62.59
69.10
73.93
77.51
79.88
80.70
79.69
76.90
72.78
68.12
63.65
59.83
56.60
53.52
50.00
45.55
40.02
33.55
26.52
19.36
12.35
5.50
-1.50
-9.11
-17.80
-27.78
-38.79
-50.17
-61.03
-70.62
-78.68
-85.55
-92.16
-99.72
-109.34
-121.63
-136.18
-151.25
-163.71
-169.60
-165.12
-148.00
-118.44
-79.36
-35.48
8.08
47.43
80.72
108.05
130.61
149.69
165.91
179.24
189.40
196.41
200.85
203.79
206.31
209.11
212.27
215.35
217.81
219.46
220.63
222.15
224.88
229.31
235.31
242.30
249.67
257.14
264.82
272.80
280.59
286.74
288.98
284.99
273.28
253.90
228.50
199.76
170.47
142.69
117.17
93.40
69.98
45.23
17.83
-12.78
-46.17
-81.39
-117.24
-152.97
-188.60
-224.86
-263.09
-305.12
-353.14
-409.26
-474.32
-546.43
-619.91
-685.81
-734.16
-757.34
-752.88
-724.24
-679.17
-626.47
-572.87
-521.66
-473.17
-426.50
-381.00
-336.69
-293.64
-251.15
-207.70
-161.84
-113.63
-65.32
-21.05
14.53
38.26
49.79
51.65
48.14
43.49
40.32
38.95
37.72
34.21
26.60
14.71
0.44
-12.71
-20.64
-19.90
-8.68
12.79
42.47
77.32
113.98
149.31
180.66
206.02
224.18
234.91
238.98
237.83
233.13
226.23
218.04
209.03
199.58
190.14
181.18
172.94
165.36
158.08
150.65
142.78
134.45
125.90
117.45
109.33
101.53
93.73
85.40
75.93
64.97
52.56
39.24
25.85
13.26
2.01
-7.82
-16.72
-25.56
-35.43
-47.36
-61.90
-78.64
-95.72
-109.78
-116.59
-112.30
-94.93
-65.39
-27.53
13.11
51.01
82.34
105.69
121.76
132.29
139.00
142.98
144.68
144.23
141.83
137.89
132.83
126.98
120.43
113.14
105.21
96.97
88.98
81.87
75.99
71.26
67.14
62.92
57.95
51.98
45.13
37.76
30.18
22.43
14.33
5.54
-4.10
-14.50
-25.23
-35.68
-45.27
-53.71
-61.17
-68.26
-75.99
-85.41
-97.14
-110.66
-124.03
-133.93
-136.55
-128.80
-109.63
-80.56
-45.42
-9.08
24.09
51.31
71.75
86.16
95.95
102.45
106.62
109.01
110.03
110.00
109.12
107.38
104.56
100.28
94.32
86.85
78.49
70.26
63.22
58.12
55.06
53.43
52.06
49.68
45.35
38.81
30.66
21.93
13.67
6.50
0.32
-5.52
-11.84
-19.16
-27.52
-36.37
-44.92
-52.46
-58.72
-64.02
-69.19
-75.42
-83.90
-95.42
-109.79
-125.49
-139.56
-148.02
-147.00
-134.04
-109.08
-74.78
-35.77
2.78
36.69
63.65
83.43
97.16
106.46
112.74
117.02
119.89
121.85
123.24
124.28
124.99
125.18
124.74
123.80
122.90
122.89
124.58
128.39
134.06
140.58
146.53
150.47
151.50
149.49
145.13
139.68
134.49
130.62
128.51
127.96
128.28
128.63
128.28
126.79
124.02
120.01
114.83
108.50
101.00
92.39
83.00
73.57
65.29
59.62
58.02
61.55
70.54
84.53
102.27
122.12
142.34
161.42
178.27
192.13
202.48
208.93
211.13
208.93
202.46
192.31
179.48
165.15
150.40
135.88
121.69
107.59
93.24
78.59
63.99
50.03
37.17
25.41
14.14
2.39
-10.77
-25.70
-42.01
-58.57
-73.97
-87.11
-97.67
-106.24
-114.04
-122.32
-131.78
-142.24
-152.85
-162.57
-170.81
-177.80
-184.58
-192.68
-203.73
-219.40
-241.23
-270.22
-305.83
-345.08
-382.17
-409.52
-419.96
-409.44
-378.75
-333.61
-282.77
-235.16
-197.37
-172.50
-160.43
-159.12
-166.07
-179.03
-196.31
-216.50
-238.36
-261.02
-284.44
-309.79
-339.17
-374.40
-414.85
-456.03
-489.86
-507.08
-500.86
-470.01
-419.79
-359.93
-300.83
-249.87
-209.56
-178.29
-152.59
-129.58
-108.31
-89.50
-74.42
-63.81
-57.31
-53.80
-51.96
-50.79
-49.93
-49.33
-48.67
-46.89
-42.16
-32.41
-16.38
5.60
31.43
57.93
82.04
102.01
117.84
130.88
142.97
155.32
168.11
180.54
191.41
199.76
205.32
208.52
210.15
210.98
211.24
210.55
207.97
202.38
193.08
180.28
165.39
150.95
140.17
136.09
140.82
154.92
177.28
205.49
236.34
266.50
293.03
313.79
327.90
336.10
340.80
345.51
353.49
366.09
381.65
395.61
402.12
396.30
376.18
343.31
301.79
256.43
211.06
167.77
127.17
89.05
53.02
18.50
-15.53
-50.56
-87.83
-127.16
-165.94
-199.19
-220.83
-225.89
-212.66
-183.51
-144.05
-101.00
-59.78
-23.22
8.17
34.59
55.20
67.44
67.72
53.19
23.47
-18.74
-68.62
-120.92
-171.84
-220.07
-266.49
-313.16
-362.29
-415.78
-474.87
-539.55
-607.66
-674.17
-731.52
-771.40
-787.68
-778.75
-748.27
-703.58
-652.78
-601.90
-553.76
-508.53
-465.46
-424.26
-385.40
-349.52
-316.52
-285.28
-254.18
-222.07
-188.93
-155.92
-125.01
-97.99
-75.78
-58.06
-43.41
-29.90
-15.84
-0.35
16.37
33.28
49.11
62.92
74.60
84.87
95.01
106.31
119.66
135.42
153.54
173.68
195.17
216.85
236.85
252.77
262.23
263.67
257.17
244.73
229.87
216.43
207.19
202.91
202.34
203.05
202.80
200.56
196.74
192.74
189.97
189.26
190.80
194.62
201.09
210.89
224.29
240.24
256.04
268.02
272.83
268.86
256.81
239.13
218.84
198.27
178.39
159.36
141.47
126.06
115.70
113.42
121.44
139.96
166.75
197.58
227.56
252.52
270.33
281.40
288.39
295.37
306.38
324.10
348.76
377.77
406.24
428.15
438.06
432.46
410.56
374.25
327.14
273.47
217.10
160.75
105.91
52.89
0.88
-51.84
-107.36
-166.97
-229.58
-290.76
-343.05
-378.09
-389.73
-376.82
-344.15
-300.81
-256.88
-219.94
-193.11
-175.19
-162.43
-150.72
-137.11
-120.12
-99.34
-74.86
-47.07
-16.84
14.24
44.04
70.30
91.60
108.24
122.56
138.49
160.45
191.67
232.85
281.63
332.99
380.65
418.66
442.85
451.58
445.79
428.33
402.95
373.25
341.90
310.49
279.79
250.26
222.47
197.13
174.71
155.05
137.09
119.15
99.53
77.36
52.95
27.73
3.62
-17.89
-36.55
-53.54
-71.11
-91.68
-116.78
-146.35
-178.90
-212.06
-243.71
-272.90
-300.30
-328.00
-358.95
-396.30
-442.43
-497.86
-560.07
-623.01
-677.77
-714.86
-727.16
-712.62
-674.85
-621.57
-561.36
-500.41
-440.72
-380.49
-316.40
-246.51
-172.40
-99.59
-36.34
8.75
29.20
22.51
-9.13
-59.27
-118.80
-177.86
-227.68
-262.07
-278.20
-276.63
-260.89
-236.41
-209.28
-184.89
-166.97
-157.02
-154.43
-157.00
-161.57
-164.98
-164.89
-160.39
-152.05
-141.51
-130.54
-120.18
-110.31
-99.73
-86.88
-70.64
-50.94
-28.68
-5.42
17.40
39.03
59.67
80.33
102.51
127.68
156.67
189.03
222.68
254.06
278.93
293.63
296.30
287.50
269.79
246.72
221.47
196.06
171.26
147.12
123.74
101.68
81.85
65.12
51.68
40.92
31.54
22.26
12.56
3.32
-3.21
-4.14
2.96
18.90
42.37
70.26
98.62
123.84
143.49
156.51
163.03
163.79
159.93
152.66
143.28
133.11
123.26
114.52
107.15
100.99
95.51
90.14
84.35
77.90
70.91
63.89
57.67
53.20
51.10
51.28
52.79
54.02
53.36
49.82
43.56
35.76
28.18
22.42
19.39
19.24
21.59
25.87
31.51
37.95
44.50
50.29
54.44
56.39
56.22
54.59
52.57
51.22
51.29
53.01
56.07
59.73
62.95
64.56
63.61
59.61
52.93
44.89
37.53
33.19
33.88
40.88
54.50
74.21
98.75
126.39
155.16
183.18
209.00
231.91
251.92
269.51
285.13
298.84
310.21
318.59
323.49
324.93
323.51
320.00
314.85
307.74
297.66
283.23
263.52
238.69
210.10
179.98
150.44
122.56
95.93
68.97
39.90
7.75
-27.04
-62.78
-97.32
-128.93
-156.75
-180.72
-201.04
-217.61
-229.75
-236.44
-236.76
-230.44
-218.07
-201.11
-181.58
-161.70
-143.43
-128.29
-117.13
-110.01
-106.05
-103.33
-98.97
-89.40
-71.14
-41.77
-0.98
48.92
103.15
155.58
200.34
233.45
253.68
262.52
263.18
259.21
253.41
247.33
241.44
235.64
229.72
223.51
216.87
209.49
200.92
190.71
178.71
165.20
150.88
136.62
123.18
110.90
99.73
89.28
79.12
68.96
58.75
48.71
39.16
30.39
22.55
15.56
9.12
2.79
-3.99
-11.73
-20.84
-31.48
-43.53
-56.59
-70.10
-83.52
-96.57
-109.32
-122.18
-135.68
-150.19
-165.66
-181.58
-197.19
-211.82
-225.19
-237.60
-249.86
-263.02
-278.17
-296.24
-317.79
-342.67
-369.56
-395.88
-418.21
-433.29
-439.27
-436.50
-427.47
-415.67
-404.05
-393.91
-384.59
-374.34
-361.47
-345.41
-326.82
-307.14
-287.72
-269.35
-251.98
-235.06
-217.81
-199.58
-180.11
-159.55
-138.43
-117.45
-97.22
-78.16
-60.35
-43.77
-28.40
-14.44
-2.22
7.93
15.91
21.92
26.33
29.50
31.71
33.03
33.48
33.09
31.82
29.60
26.21
21.42
15.12
7.54
-0.72
-8.64
-14.93
-18.24
-17.42
-11.89
-2.04
10.77
24.43
36.72
46.16
52.49
56.72
60.58
65.71
72.92
81.95
91.59
100.17
105.98
107.64
104.19
95.37
81.77
64.99
47.49
32.08
21.15
15.90
16.06
20.00
25.25
29.25
29.98
26.51
19.23
9.94
1.73
-1.68
3.24
18.70
44.74
79.01
117.34
154.89
187.47
212.41
228.79
237.08
238.48
234.42
226.25
215.21
202.39
188.65
174.51
160.00
144.83
128.63
111.38
93.64
76.58
61.68
50.23
42.92
39.54
38.93
39.31
38.60
35.01
27.46
15.90
1.39
-14.11
-28.17
-38.50
-43.48
-42.50
-35.96
-25.05
-11.29
3.71
18.44
31.43
41.29
46.76
46.88
41.25
30.14
14.38
-4.77
-25.91
-47.58
-68.52
-87.66
-104.48
-119.19
-132.81
-146.97
-163.38
-183.38
-207.47
-235.26
-265.36
-295.44
-322.28
-342.23
-352.12
-350.50
-338.61
-320.41
-301.65
-288.10
-283.98
-291.04
-308.65
-334.47
-365.18
-396.87
-425.30
-446.28
-456.46
-454.34
-440.86
-419.21
-393.78
-368.71
-346.76
-328.88
-314.51
-302.36
-291.08
-279.73
-267.75
-254.84
-240.70
-225.04
-207.67
-188.63
-168.27
-147.20
-126.10
-105.55
-85.85
-66.96
-48.65
-30.59
-12.64
5.12
22.29
38.33
52.69
65.09
75.52
84.22
91.51
97.58
102.34
105.39
106.21
104.43
100.11
93.81
86.59
79.79
74.85
72.97
74.87
80.45
88.62
97.29
103.87
106.10
102.86
94.72
83.80
73.04
65.28
62.36
64.84
72.35
84.05
99.24
117.60
139.13
163.74
190.87
219.23
246.86
271.32
290.05
300.73
301.53
291.42
270.40
239.77
202.13
161.25
121.61
87.67
63.06
49.81
47.92
55.33
68.38
82.70
94.14
99.60
97.48
87.74
71.70
51.67
30.62
11.74
-2.13
-9.10
-8.63
-1.52
10.71
26.60
45.38
66.71
89.99
113.49
134.14
148.33
153.27
148.23
134.88
116.70
97.55
80.55
67.46
58.87
54.91
55.58
60.70
69.59
80.71
91.82
100.63
105.73
107.25
106.88
107.18
110.30
116.86
125.44
133.11
136.67
134.21
126.26
116.03
108.48
108.57
119.32
140.31
167.37
193.62
211.47
214.92
201.26
171.49
129.75
81.77
33.34
-10.53
-46.05
-70.73
-83.49
-84.98
-77.76
-66.13
-55.26
-50.08
-54.06
-68.38
-91.59
-119.85
-147.58
-168.67
-177.72
-171.33
-149.01
-113.21
-68.68
-21.24
23.48
60.96
88.23
103.91
108.21
102.87
91.08
77.06
65.32
59.56
61.70
71.33
85.93
101.61
114.25
120.60
118.93
109.19
92.80
72.04
49.55
27.76
8.76
-5.70
-14.09
-15.10
-7.92
7.43
29.61
55.93
82.66
105.95
122.77
131.66
132.92
128.12
119.42
108.73
97.39
86.04
74.84
63.72
52.46
40.85
28.62
15.52
1.25
-14.53
-32.11
-51.50
-72.08
-92.30
-109.72
-121.57
-125.67
-121.21
-108.97
-90.85
-69.01
-44.93
-19.28
7.90
36.55
66.27
96.31
125.87
154.37
181.53
207.19
231.30
253.81
274.70
293.73
310.23
322.80
329.54
328.59
318.61
299.06
269.76
230.42
180.59
120.22
50.82
-23.77
-97.79
-164.96
-220.55
-262.67
-292.22
-311.55
-322.61
-325.96
-320.94
-306.84
-284.29
-255.77
-225.15
-196.33
-172.04
-153.22
-139.31
-129.06
-121.28
-115.27
-110.65
-107.09
-104.01
-100.59
-96.04
-89.83
-81.96
-72.92
-63.51
-54.57
-46.82
-40.67
-36.19
-33.20
-31.55
-31.35
-33.16
-37.82
-45.94
-57.18
-69.89
-81.14
-87.66
-86.92
-78.18
-62.63
-42.92
-22.01
-2.26
15.01
29.28
40.30
47.70
51.05
50.22
45.85
39.38
32.71
27.61
25.13
25.34
27.53
30.77
34.43
38.47
43.28
49.28
56.46
64.29
71.93
78.60
83.76
87.18
88.76
88.47
86.63
84.23
82.91
84.47
89.84
98.30
107.47
114.38
117.07
115.76
112.67
110.64
111.29
113.85
115.47
112.66
103.17
87.04
66.49
44.79
24.86
8.37
-4.28
-13.46
-19.60
-22.78
-22.87
-19.80
-14.01
-6.62
0.77
6.46
9.03
7.70
2.41
-6.29
-17.27
-28.88
-39.06
-45.50
-46.21
-40.11
-27.53
-10.26
8.91
26.99
41.56
51.19
55.49
54.79
49.88
41.69
31.22
19.40
6.99
-5.55
-18.12
-30.86
-43.95
-57.33
-70.50
-82.53
-92.23
-98.58
-101.01
-99.71
-95.53
-89.74
-83.64
-78.07
-73.29
-69.00
-64.77
-60.36
-55.98
-52.29
-50.12
-50.09
-52.27
-55.97
-59.80
-61.87
-60.30
-53.60
-41.27
-23.94
-3.43
17.62
36.43
50.65
58.91
60.92
57.36
49.52
39.00
27.41
16.24
6.64
-0.71
-5.64
-8.56
-10.27
-11.64
-13.31
-15.49
-17.86
-19.68
-20.06
-18.26
-14.13
-8.29
-2.06
2.91
5.20
4.20
0.22
-5.74
-12.50
-19.33
-26.06
-33.05
-40.63
-48.80
-56.99
-64.17
-69.09
-70.53
-67.48
-59.35
-46.27
-29.29
-10.44
7.72
22.73
32.92
37.82
38.08
34.96
29.77
23.52
16.90
10.43
4.58
-0.14
-3.42
-5.25
-5.96
-6.10
-6.20
-6.58
-7.28
-8.18
-8.96
-9.38
-9.29
-8.67
-7.65
-6.38
-4.98
-3.47
-1.85
-0.21
1.10
1.50
0.24
-3.27
-9.18
-16.92
-25.11
-31.81
-34.98
-33.09
-25.72
-13.75
0.71
15.00
26.69
34.35
37.85
38.29
37.33
36.64
37.32
39.75
43.63
48.21
52.64
56.17
58.40
59.34
59.31
58.92
58.83
59.59
61.36
63.91
66.60
68.63
69.43
68.78
67.10
65.20
63.94
63.75
64.33
64.52
62.58
56.72
45.64
29.40
9.77
-9.81
-24.94
-31.52
-27.09
-11.92
10.97
36.09
57.47
70.23
71.76
62.31
44.56
22.66
1.05
-16.16
-26.75
-29.28
-23.24
-8.82
13.20
41.29
73.07
105.60
136.41
162.64
183.34
198.71
209.43
215.90
217.71
213.92
203.76
188.16
167.99
146.07
125.46
108.40
95.72
86.91
80.62
71.32
64.14
57.79
52.40
48.12
44.70
41.38
37.01
30.38
20.71
8.55
-6.28
-22.73
-39.69
-56.48
-73.03
-89.75
-107.28
-126.31
-146.96
-170.23
-195.87
-222.67
-248.20
-269.12
-282.03
-284.80
-277.41
-261.92
-242.67
-223.91
-208.96
-199.59
-196.05
-197.73
-203.82
-213.54
-226.06
-240.54
-255.29
-267.89
-275.59
-275.96
-267.72
-251.35
-228.94
-203.40
-177.61
-153.21
-130.42
-108.48
-86.55
-64.50
-43.19
-23.78
-6.93
7.99
22.93
40.32
61.80
87.20
114.26
139.33
158.73
169.81
171.39
163.27
145.53
118.24
81.92
38.55
-7.87
-51.74
-87.49
-111.49
-123.26
-125.24
-121.18
-114.31
-106.04
-96.08
-83.42
-67.63
-49.56
-31.17
-14.72
-1.92
6.52
10.81
11.66
9.79
5.64
-0.56
-8.67
-18.37
-29.05
-39.94
-50.38
-60.03
-68.92
-77.13
-84.31
-89.30
-90.21
-84.99
-72.21
-51.89
-25.72
3.14
30.79
53.41
68.12
73.57
70.42
61.38
50.63
42.85
41.76
49.04
63.96
83.99
106.01
127.49
147.07
164.33
179.15
191.05
198.93
201.29
196.66
184.06
163.24
134.90
100.61
62.85
24.66
-10.90
-41.34
-65.24
-82.31
-93.14
-98.70
-100.08
-98.37
-94.79
-90.81
-88.05
-88.02
-91.69
-99.31
-110.28
-123.28
-136.34
-146.94
-152.29
-149.82
-138.03
-117.17
-89.61
-59.15
-29.65
-3.58
18.81
39.06
59.08
79.64
99.68
116.96
129.48
136.97
141.26
145.57
152.98
165.22
182.03
201.59
221.40
239.07
252.82
261.51
264.51
261.59
252.92
239.14
221.47
201.63
181.69
163.77
149.78
141.24
139.25
144.47
156.97
175.93
199.18
223.11
243.18
254.96
255.59
244.59
224.02
197.48
168.75
140.56
114.11
89.36
65.74
42.76
20.21
-2.14
-24.89
-49.17
-76.45
-107.96
-144.28
-185.27
-230.39
-279.28
-331.81
-387.70
-445.75
-503.26
-556.21
-600.23
-631.92
-649.79
-654.35
-647.39
-630.93
-606.55
-575.38
-538.47
-497.29
-453.69
-409.56
-366.25
-324.37
-283.84
-244.34
-205.60
-167.48
-129.91
-92.64
-55.06
-16.19
24.84
68.23
112.83
156.07
194.49
224.82
245.22
255.87
258.82
257.05
253.37
249.67
246.90
245.52
246.12
249.55
256.66
267.78
282.29
298.52
313.79
324.87
328.37
321.40
302.47
271.99
232.41
187.71
142.29
99.95
63.24
33.36
10.42
-6.22
-17.80
-26.14
-33.69
-43.22
-57.15
-77.05
-103.27
-135.22
-171.87
-212.38
-256.19
-302.66
-350.34
-396.36
-436.57
-466.42
-482.37
-483.18
-470.43
-447.85
-419.90
-390.19
-360.59
-331.23
-301.40
-270.56
-238.87
-207.16
-176.38
-146.90
-118.33
-89.65
-59.67
-27.45
7.38
44.42
82.41
119.16
151.77
177.21
193.16
198.94
195.70
186.18
173.59
160.49
148.14
136.37
124.21
110.72
95.77
80.42
66.89
57.96
56.22
63.07
78.17
99.35
123.35
146.96
168.04
185.93
201.10
214.35
226.02
235.85
243.40
248.66
252.46
256.30
261.72
269.58
279.56
290.18
299.28
304.80
305.35
300.65
291.33
278.64
263.88
247.91
230.93
212.43
191.34
166.42
136.57
101.23
60.66
16.30
-29.10
-71.64
-106.97
-131.46
-143.41
-143.63
-135.21
-122.30
-108.57
-96.11
-85.37
-75.95
-67.62
-60.88
-56.64
-55.18
-55.31
-54.26
-48.72
-36.31
-17.10
6.05
28.16
43.81
49.18
43.41
28.92
10.36
-7.17
-19.93
-26.68
-28.64
-28.57
-29.65
-34.41
-44.28
-59.27
-77.88
-97.17
-113.14
-121.62
-119.55
-105.99
-82.61
-52.98
-21.41
8.38
34.04
54.58
69.90
80.17
85.73
87.17
85.61
82.79
80.68
80.99
84.44
90.49
97.45
102.97
104.78
101.28
91.85
76.85
57.31
34.60
10.10
-14.99
-39.85
-64.14
-87.98
-111.87
-136.54
-162.61
-190.16
-218.17
-244.07
-263.94
-273.32
-268.45
-247.63
-211.92
-164.92
-111.82
-58.07
-8.34
34.12
67.54
91.59
107.09
115.65
119.17
119.25
116.69
111.50
103.26
91.68
77.02
60.02
41.66
22.78
3.96
-14.38
-31.80
-47.77
-61.81
-73.66
-83.56
-92.10
-100.12
-108.44
-117.72
-128.30
-140.15
-152.80
-165.11
-175.32
-181.14
-180.40
-171.69
-155.02
-131.94
-105.18
-77.71
-51.97
-29.31
-10.14
5.62
18.09
27.20
32.88
35.33
35.32
34.01
32.59
31.98
32.48
33.98
36.23
39.19
43.23
49.01
57.03
67.40
79.66
93.00
106.76
120.86
135.84
152.58
171.48
191.76
211.07
225.87
232.36
227.74
211.27
184.80
152.53
120.14
93.42
76.98
73.11
81.35
98.71
120.51
141.49
157.02
163.89
160.91
148.92
130.52
109.46
89.79
74.80
66.11
63.27
64.03
65.27
64.29
59.70
51.61
41.18
29.56
17.12
3.22
-13.28
-33.10
-55.97
-80.46
-104.59
-126.43
-144.58
-158.21
-166.93
-170.69
-169.93
-165.80
-160.04
-154.49
-150.32
-147.51
-144.71
-139.79
-130.64
-115.87
-95.19
-69.31
-39.59
-7.72
24.57
55.66
84.04
108.35
127.40
140.39
147.18
148.60
146.41
142.93
140.35
140.22
143.07
148.63
156.13
164.49
172.37
177.94
179.13
173.91
161.08
140.70
114.24
84.13
53.03
23.19
-3.94
-27.68
-48.02
-65.35
-80.27
-93.28
-104.50
-113.53
-119.43
-120.98
-117.03
-107.00
-91.31
-71.40
-49.50
-27.94
-8.54
7.89
21.44
32.70
42.22
50.08
56.03
59.73
61.19
60.90
59.68
58.33
57.28
56.58
55.96
55.08
53.62
51.22
47.63
42.72
36.72
30.24
24.14
19.14
15.54
13.10
11.21
9.28
6.95
4.10
0.59
-3.88
-9.79
-17.36
-26.18
-35.04
-42.20
-46.14
-46.08
-42.32
-35.86
-27.78
-18.73
-8.78
2.16
13.88
25.35
34.94
40.81
41.57
36.71
26.68
12.70
-3.57
-20.30
-35.75
-48.51
-57.72
-63.35
-66.13
-67.30
-68.03
-69.04
-70.45
-72.02
-73.65
-75.67
-78.83
-83.85
-90.95
-99.65
-109.07
-118.44
-127.51
-136.48
-145.47
-153.86
-159.99
-161.66
-156.99
-145.40
-127.95
-106.90
-84.85
-63.74
-44.46
-27.04
-11.31
2.66
14.36
23.14
28.61
30.89
30.50
28.13
24.33
19.55
14.16
8.72
3.98
0.78
-0.23
1.13
4.39
8.53
12.19
14.10
13.40
9.84
3.80
-4.00
-12.75
-21.92
-31.38
-41.34
-52.14
-63.95
-76.44
-88.71
-99.40
-106.96
-110.11
-108.25
-101.58
-91.05
-78.02
-63.81
-49.48
-35.70
-22.92
-11.50
-1.86
5.58
10.52
12.93
13.06
11.45
8.73
5.50
2.30
-0.41
-2.20
-2.68
-1.62
0.92
4.55
8.45
11.55
12.69
11.05
6.40
-0.75
-9.29
-17.91
-25.55
-31.77
-36.81
-41.51
-46.91
-53.89
-62.76
-73.09
-83.60
-92.42
-97.50
-97.12
-90.52
-78.06
-61.21
-42.00
-22.43
-3.94
12.70
27.30
39.95
50.75
59.72
66.88
72.22
75.83
77.77
78.12
76.92
74.24
70.25
65.20
59.41
53.19
46.68
39.89
32.73
25.08
16.92
8.34
-0.46
-9.18
-17.54
-25.31
-32.32
-38.51
-44.02
-49.26
-54.90
-61.79
-70.52
-81.11
-92.52
-102.81
-109.52
-110.44
-104.41
-91.63
-73.57
-52.40
-30.30
-8.93
10.71
28.13
43.02
55.07
63.99
69.59
72.04
71.91
70.00
67.15
63.97
60.71
57.30
53.58
49.55
45.48
41.80
38.93
37.01
35.68
34.26
31.92
28.02
22.37
15.31
7.55
-0.11
-7.06
-13.05
-18.23
-23.11
-28.36
-34.78
-43.03
-53.45
-65.64
-78.32
-89.37
-96.38
-97.36
-91.61
-79.98
-64.61
-48.11
-32.64
-19.37
-8.50
0.29
7.33
12.63
15.97
17.23
16.74
15.29
13.86
13.16
13.32
13.82
13.96
13.17
11.51
9.50
7.99
7.63
8.64
10.71
13.31
15.94
18.39
20.72
23.11
25.75
28.75
32.09
35.70
39.25
42.00
42.68
39.62
31.30
17.13
-1.82
-22.68
-41.42
-54.05
-58.01
-52.94
-40.66
-24.22
-6.75
9.49
23.32
34.43
42.84
48.59
51.74
52.58
51.71
50.01
48.29
46.91
45.74
44.23
41.76
38.03
33.21
27.92
22.93
18.85
15.81
13.39
10.73
6.88
1.26
-6.03
-14.11
-21.53
-26.77
-28.79
-27.44
-23.53
-18.62
-14.48
-12.53
-13.29
-16.18
-19.59
-21.38
-19.56
-13.00
-1.83
12.62
28.31
43.16
55.55
64.55
69.81
71.38
69.49
64.57
57.27
48.42
39.00
30.04
22.64
17.97
17.18
21.13
29.99
43.03
58.40
73.48
85.27
91.10
89.07
78.57
60.35
36.44
9.73
-16.75
-40.45
-59.80
-74.40
-84.95
-92.85
-99.76
-107.01
-115.05
-123.07
-129.12
-130.75
-125.94
-114.13
-96.43
-75.29
-53.53
-33.39
-16.08
-2.00
8.79
16.08
19.56
19.17
15.57
10.19
4.91
1.50
1.06
3.80
9.24
16.79
26.31
38.45
54.49
75.64
102.17
132.76
164.46
193.43
216.12
230.34
235.82
233.86
226.63
216.06
203.35
188.77
171.97
152.21
128.51
99.96
66.44
29.55
-6.87
-37.25
-56.10
-60.45
-51.48
-34.44
-16.45
-3.50
2.01
1.49
-1.46
-3.68
-4.26
-4.69
-7.40
-13.93
-23.85
-35.08
-45.09
-52.16
-56.11
-58.10
-59.85
-62.68
-67.00
-72.29
-77.52
-81.83
-84.93
-87.32
-89.94
-93.73
-99.17
-106.15
-114.22
-123.00
-132.40
-142.34
-152.21
-160.44
-164.44
-161.38
-149.31
-128.12
-99.88
-68.15
-36.92
-9.37
12.74
29.10
40.36
47.52
51.55
53.20
53.07
51.63
49.24
46.08
42.21
37.62
32.35
26.60
20.72
15.07
9.89
5.17
0.67
-3.92
-8.86
-14.24
-19.93
-25.81
-31.77
-37.84
-44.17
-50.99
-58.68
-67.64
-78.16
-89.94
-101.70
-111.08
-115.07
-111.01
-97.59
-75.56
-47.58
-17.45
11.17
35.65
54.83
68.81
78.28
84.07
86.77
86.79
84.49
80.31
74.76
68.38
61.59
54.66
47.74
40.95
34.45
28.47
23.16
18.51
14.22
9.83
4.82
-1.10
-7.95
-15.36
-22.81
-29.84
-36.24
-42.24
-48.48
-55.82
-64.95
-75.80
-87.11
-96.40
-100.58
-96.93
-84.23
-63.26
-36.65
-7.99
19.28
42.74
61.24
74.63
83.35
87.92
88.96
87.12
83.21
78.12
72.58
67.04
61.62
56.15
50.42
44.33
37.98
31.63
25.55
19.89
14.54
9.20
3.54
-2.65
-9.33
-16.19
-22.85
-29.04
-34.77
-40.40
-46.61
-54.18
-63.62
-74.68
-86.07
-95.40
-99.75
-96.57
-84.60
-64.54
-38.90
-11.29
14.75
36.67
53.36
64.93
72.12
75.80
76.64
75.12
71.69
66.82
60.99
54.59
47.87
40.93
33.83
26.77
20.11
14.36
9.97
7.05
5.25
3.70
1.39
-2.56
-8.45
-15.89
-23.91
-31.41
-37.60
-42.29
-45.99
-49.65
-54.38
-60.94
-69.30
-78.42
-86.22
-90.03
-87.40
-76.97
-59.07
-35.75
-10.15
14.44
35.53
51.95
63.79
71.88
77.20
80.43
81.86
81.59
79.79
76.83
73.26
69.57
65.91
62.09
57.68
52.38
46.31
40.12
34.74
30.94
28.84
27.78
26.53
23.83
18.97
12.13
4.29
-3.13
-8.98
-12.76
-14.83
-16.22
-18.23
-21.95
-27.92
-35.88
-44.69
-52.41
-56.67
-55.21
-46.60
-30.74
-9.03
16.08
41.79
65.84
86.97
105.00
120.42
133.71
144.88
153.36
158.18
158.55
154.26
145.91
134.68
121.90
108.45
94.44
79.45
62.98
45.22
27.31
11.19
-1.16
-8.67
-11.66
-11.89
-11.84
-13.82
-19.19
-28.08
-39.57
-52.22
-64.56
-75.44
-84.26
-91.13
-96.98
-103.53
-112.93
-127.00
-146.28
-169.44
-193.24
-213.49
-226.29
-229.41
-222.82
-208.34
-188.64
-166.10
-142.27
-117.87
-93.44
-69.76
-47.96
-29.10
-13.65
-1.18
9.28
18.66
27.15
34.05
38.13
38.42
34.91
28.83
22.26
17.44
15.98
18.36
24.02
31.69
39.85
47.03
51.87
53.20
50.30
43.20
33.00
21.68
11.58
4.41
0.54
-1.04
-1.98
-3.39
-4.81
-4.10
1.89
15.79
38.32
67.60
99.53
128.94
151.31
163.99
166.68
161.06
149.83
135.95
122.12
110.81
104.18
103.70
109.41
119.28
129.21
134.22
130.31
116.23
94.16
68.83
45.44
27.59
16.09
9.38
4.97
1.01
-2.92
-6.09
-7.67
-7.75
-7.71
-9.81
-16.47
-29.47
-49.60
-76.50
-108.57
-142.86
-175.27
-200.97
-215.69
-217.04
-205.37
-183.78
-156.92
-129.47
-104.67
-83.82
-66.59
-51.83
-38.36
-25.25
-11.92
1.89
16.06
29.99
42.72
53.46
62.18
69.97
78.91
91.23
108.26
129.69
153.47
176.62
196.51
211.88
223.28
232.43
241.18
250.42
259.69
267.52
272.22
272.75
269.05
261.78
251.68
239.10
223.92
205.92
185.25
162.73
139.65
117.39
96.82
78.05
60.50
43.23
25.42
6.63
-13.26
-34.32
-56.80
-80.96
-106.52
-132.11
-155.11
-172.24
-180.72
-179.34
-168.96
-152.05
-131.66
-110.40
-89.90
-70.94
-53.88
-38.98
-26.29
-15.50
-5.79
3.86
14.09
24.74
34.75
42.59
46.77
46.40
41.48
32.82
21.89
10.47
0.32
-7.15
-11.18
-11.74
-9.34
-4.75
1.35
8.53
16.51
25.04
33.80
42.54
51.22
59.99
68.98
77.92
85.95
91.78
94.26
92.98
88.47
81.96
74.69
67.25
59.25
49.53
36.70
19.65
-2.02
-27.91
-56.82
-86.88
-115.85
-141.52
-162.27
-177.48
-187.63
-193.98
-198.14
-201.41
-204.57
-207.83
-210.99
-213.63
-215.29
-215.50
-213.86
-209.95
-203.39
-193.84
-181.09
-165.19
-146.60
-126.28
-105.66
-86.39
-69.92
-57.12
-48.18
-42.64
-39.77
-38.81
-39.23
-40.61
-42.62
-44.88
-47.06
-49.00
-50.81
-52.81
-55.26
-58.00
-60.39
-61.40
-60.09
-56.05
-49.79
-42.59
-36.16
-32.04
-31.17
-33.73
-39.11
-46.25
-53.85
-60.65
-65.51
-67.60
-66.61
-62.86
-57.49
-52.18
-48.68
-48.08
-50.28
-53.81
-56.31
-55.49
-49.97
-39.86
-26.63
-12.38
0.97
12.41
21.88
30.04
37.61
44.97
52.10
58.73
64.71
70.05
74.97
79.56
83.74
87.19
89.61
90.83
90.90
90.02
88.53
86.92
85.77
85.74
87.30
90.55
95.06
100.04
104.69
108.63
112.13
116.03
121.33
128.75
138.28
149.02
159.23
166.69
169.31
165.64
155.35
139.31
119.31
97.41
75.38
54.14
33.60
12.89
-9.31
-34.15
-62.20
-93.19
-126.13
-159.54
-191.85
-221.77
-248.39
-271.24
-290.17
-305.21
-316.44
-323.87
-327.29
-326.20
-319.94
-307.97
-290.35
-267.91
-242.23
-214.90
-186.86
-157.83
-126.52
-91.45
-52.12
-9.76
32.75
71.74
104.18
128.77
146.17
158.63
169.33
181.87
199.66
225.05
258.39
297.08
335.70
367.45
386.31
389.09
376.21
351.06
318.69
284.38
252.75
227.32
210.07
200.97
197.72
196.32
192.48
183.30
168.18
148.54
126.45
103.52
80.53
57.96
36.93
19.42
7.62
2.82
4.54
10.61
18.18
24.74
28.92
30.59
30.10
27.56
22.50
13.91
0.94
-16.62
-38.08
-62.21
-87.83
-114.24
-141.06
-167.57
-192.22
-212.67
-226.51
-232.57
-231.60
-226.11
-219.16
-212.69
-206.55
-198.74
-186.57
-168.50
-145.16
-119.37
-95.20
-76.74
-67.21
-68.57
-81.38
-104.60
-135.19
-168.13
-197.12
-216.06
-220.86
-210.65
-187.88
-157.24
-123.95
-92.41
-65.91
-46.84
-37.10
-38.06
-50.06
-72.11
-102.03
-136.98
-174.05
-210.32
-242.58
-267.23
-280.49
-279.66
-264.27
-236.72
-201.64
-164.27
-128.64
-96.57
-67.79
-40.98
-14.83
11.30
37.46
63.35
88.50
112.32
133.85
151.63
163.52
166.88
159.12
138.76
106.79
67.76
29.53
1.52
-8.49
2.72
32.31
72.53
113.60
146.83
166.61
170.43
157.77
129.26
86.06
32.30
-23.80
-70.94
-98.12
-98.31
-70.80
-21.20
40.77
103.48
157.55
197.78
223.47
237.12
242.81
244.97
247.33
252.25
258.24
263.15
265.50
264.92
261.25
254.12
243.06
228.13
210.10
184.57
149.59
107.65
64.50
25.08
-8.73
-37.39
-62.20
-84.38
-116.54
-166.04
-230.20
-297.98
-358.63
-407.10
-443.45
-470.25
-490.58
-525.74
-588.42
-675.36
-769.93
-855.86
-925.64
-979.28
-1020.14
-1052.05
-1102.56
-1188.21
-1305.40
-1433.00
-1549.93
-1645.91
-1720.33
-1777.23
-1668.75
-1332.90
-826.02
-286.58
173.19
514.31
748.37
904.12
1008.77
1082.00
1105.69
1076.69
1005.99
919.04
839.78
780.42
742.79
723.46
717.39
700.98
660.66
596.90
523.96
456.75
402.96
364.30
340.31
330.20
320.96
303.73
276.73
245.77
216.91
192.44
172.15
155.50
142.54
127.75
108.17
84.63
62.12
45.83
38.53
40.63
51.13
68.27
87.87
106.68
122.69
135.63
145.42
151.61
153.76
152.22
148.35
144.27
142.28
143.87
149.57
158.72
169.78
180.68
189.23
193.50
192.35
185.72
174.50
159.87
142.37
121.40
95.50
63.41
25.32
-16.56
-58.59
-97.15
-130.17
-157.69
-181.08
-201.59
-219.17
-232.20
-238.48
-236.62
-226.96
-211.61
-193.43
-174.90
-157.37
-140.95
-124.85
-108.29
-91.04
-73.59
-56.90
-41.90
-29.07
-18.36
-9.54
-2.52
2.18
3.51
0.18
-8.87
-23.98
-44.56
-69.14
-95.70
-122.09
-146.39
-167.07
-183.03
-193.52
-198.11
-196.62
-189.27
-176.72
-160.09
-140.94
-120.94
-101.64
-84.22
-69.35
-57.25
-47.79
-40.74
-35.86
-32.95
-31.77
-31.92
-32.77
-33.45
-33.10
-31.12
-27.31
-21.99
-15.79
-9.37
-2.97
3.67
11.35
20.97
33.12
47.65
63.61
79.62
94.46
107.75
120.28
133.80
150.38
171.44
197.17
226.37
257.09
287.46
316.61
344.96
374.00
405.64
441.72
483.47
530.96
582.41
633.45
677.23
705.63
711.46
691.08
645.67
580.88
504.51
423.69
342.71
262.64
182.74
102.63
24.01
-49.16
-111.88
-160.10
-192.44
-210.67
-218.69
-220.86
-219.98
-216.38
-208.53
-194.50
-173.83
-148.34
-121.60
-97.47
-78.41
-64.62
-54.45
-45.60
-36.43
-26.71
-17.57
-10.67
-7.25
-7.44
-10.30
-14.22
-17.75
-20.09
-21.30
-22.02
-22.90
-24.12
-24.91
-23.57
-17.71
-4.83
17.25
49.95
93.71
147.82
210.13
276.80
342.23
399.61
442.09
464.39
464.19
442.72
404.24
354.50
299.00
241.59
184.21
127.43
71.41
16.73
-35.39
-83.29
-125.34
-160.31
-187.42
-206.31
-216.82
-218.92
-212.91
-199.59
-180.48
-157.69
-133.53
-109.82
-87.33
-65.47
-42.53
-16.30
15.07
52.37
94.82
140.06
184.47
223.77
253.73
270.97
273.64
261.84
237.52
203.85
164.35
121.90
78.14
33.37
-12.93
-61.35
-111.64
-162.18
-210.13
-251.99
-284.52
-305.66
-314.81
-312.57
-300.09
-278.26
-247.39
-207.50
-158.90
-102.92
-42.17
19.69
78.45
129.99
170.67
197.76
209.61
205.90
187.59
156.74
115.89
67.45
13.40
-44.35
-103.14
-158.82
-205.78
-238.11
-251.49
-244.88
-220.93
-184.82
-141.93
-95.68
-46.69
6.33
64.48
126.64
188.67
244.24
286.93
312.26
318.91
308.62
284.90
251.70
212.22
168.68
122.66
75.60
29.10
-15.23
-56.24
-93.67
-128.20
-161.09
-193.35
-225.17
-255.63
-283.06
-305.83
-323.10
-335.39
-344.48
-352.91
-363.05
-376.20
-392.01
-408.30
-421.59
-428.10
-424.94
-411.14
-388.02
-358.82
-327.60
-298.02
-272.15
-250.15
-230.60
-211.35
-190.49
-166.94
-140.54
-111.80
-81.45
-50.14
-18.44
13.04
43.40
71.48
96.11
116.41
132.12
143.65
151.77
157.28
160.63
161.90
160.94
157.63
152.20
145.19
137.35
129.27
121.18
112.90
103.97
93.88
82.36
69.40
55.27
40.37
25.04
9.38
-6.74
-23.70
-41.75
-60.74
-79.76
-97.13
-110.76
-118.77
-120.17
-115.21
-105.24
-92.18
-77.81
-63.32
-49.19
-35.59
-22.73
-11.13
-1.45
5.88
10.93
14.28
16.76
19.02
21.27
23.45
25.52
27.78
30.91
35.60
42.17
50.24
58.84
66.77
73.14
77.64
80.59
82.61
84.30
86.00
87.75
89.30
90.39
90.78
90.42
89.42
87.97
86.33
84.76
83.46
82.59
82.21
82.17
82.09
81.50
80.10
78.19
77.00
78.56
85.20
98.78
119.92
147.72
179.90
213.58
246.00
275.02
299.30
318.08
330.94
337.69
338.43
333.69
324.34
311.39
295.64
277.57
257.46
235.70
213.13
190.98
170.54
152.48
136.34
120.44
102.41
80.02
52.06
18.69
-18.75
-58.35
-98.45
-138.22
-177.76
-218.06
-260.67
-307.38
-359.59
-417.59
-479.57
-541.30
-596.44
-638.16
-661.11
-663.35
-646.90
-616.99
-580.20
-542.44
-507.73
-478.02
-453.82
-435.01
-421.20
-411.64
-405.09
-399.77
-393.72
-385.40
-374.12
-360.06
-343.95
-326.34
-307.20
-285.75
-260.83
-231.46
-197.50
-159.80
-120.03
-80.05
-41.25
-4.07
31.96
67.80
104.25
141.43
178.71
214.91
248.86
279.88
308.02
334.06
359.44
385.98
415.53
449.03
485.58
521.65
551.42
568.35
567.41
547.19
510.53
463.43
412.62
363.22
317.54
275.42
235.56
197.07
160.03
125.26
93.69
66.00
42.89
25.50
15.58
14.98
24.70
44.02
70.15
99.06
126.73
150.42
169.26
183.87
195.33
204.24
210.20
212.11
208.83
199.84
185.43
166.45
143.94
118.80
91.88
64.13
36.86
11.53
-10.68
-29.36
-45.21
-59.85
-75.16
-92.57
-112.59
-134.97
-159.27
-185.38
-213.59
-244.09
-276.15
-307.55
-334.84
-354.20
-362.76
-359.43
-345.04
-321.91
-293.00
-261.26
-229.27
-198.98
-171.38
-146.16
-121.51
-94.27
-60.84
-18.44
33.48
92.51
153.57
210.25
256.65
289.17
307.31
313.36
311.18
304.63
296.40
287.71
278.61
268.72
257.62
245.02
230.46
213.27
192.71
168.44
140.96
111.76
82.96
56.76
34.73
17.42
4.37
-5.46
-13.28
-19.93
-25.74
-30.46
-33.60
-34.62
-33.34
-30.01
-25.40
-20.53
-16.33
-13.28
-11.27
-9.76
-8.18
-6.19
-3.74
-0.80
3.05
8.79
17.74
31.02
48.95
70.82
95.18
120.42
145.19
168.52
189.39
206.33
217.38
220.60
215.00
201.07
180.82
156.89
131.48
105.54
78.75
50.38
20.29
-10.49
-40.00
-66.29
-88.36
-106.69
-122.79
-138.33
-154.20
-170.09
-184.82
-197.10
-206.18
-212.15
-215.63
-217.36
-217.80
-217.14
-215.61
-213.76
-212.48
-212.76
-215.31
-220.25
-227.14
-235.31
-244.10
-252.98
-261.38
-268.39
-272.70
-272.86
-267.86
-257.69
-243.59
-227.66
-212.22
-198.91
-188.20
-179.28
-170.54
-160.20
-146.92
-130.19
-110.32
-88.04
-64.18
-39.16
-12.75
15.80
47.61
83.98
126.31
175.89
233.34
297.66
365.33
430.13
484.26
520.49
534.63
526.95
501.96
466.49
427.29
389.13
354.25
322.92
294.37
267.51
240.98
213.11
182.00
146.22
105.28
60.13
12.82
-34.35
-79.71
-123.07
-165.90
-211.11
-261.85
-319.89
-383.92
-448.74
-505.82
-545.47
-560.01
-546.52
-508.11
-452.95
-391.51
-333.27
-284.19
-245.91
-216.70
-193.31
-172.81
-153.60
-135.41
-118.72
-103.96
-91.15
-79.88
-69.64
-60.55
-53.35
-49.17
-49.03
-53.28
-61.30
-71.67
-82.68
-92.93
-101.78
-109.41
-116.58
-124.28
-133.42
-144.76
-158.91
-176.18
-196.26
-217.66
-237.45
-251.75
-256.76
-250.12
-231.77
-204.00
-170.39
-134.51
-98.76
-63.97
-29.82
4.48
39.43
74.78
109.50
141.87
169.86
191.62
206.01
212.93
213.37
209.01
201.67
192.89
183.74
174.94
167.01
160.31
154.88
150.28
145.46
139.06
129.87
117.34
101.82
84.42
66.62
49.65
34.03
19.40
4.83
-10.88
-28.75
-49.51
-73.38
-99.82
-127.16
-152.44
-171.71
-180.99
-177.57
-160.92
-132.80
-96.43
-55.28
-12.17
30.92
72.34
110.27
142.62
167.57
184.24
193.12
195.82
194.38
190.49
185.13
178.72
171.40
163.35
154.84
146.14
137.35
128.51
119.61
110.76
102.12
93.73
85.33
76.36
66.08
53.99
40.06
24.87
9.40
-5.34
-18.72
-30.72
-41.92
-53.34
-66.21
-81.68
-100.25
-121.23
-142.21
-159.15
-167.18
-162.00
-141.53
-106.84
-62.07
-13.25
33.53
73.72
105.16
127.96
143.65
154.10
160.75
164.38
165.23
163.44
159.31
153.48
146.75
139.81
133.03
126.45
119.88
113.17
106.30
99.45
92.81
86.50
80.40
74.22
67.49
59.74
50.57
39.79
27.53
14.26
0.70
-12.34
-24.23
-34.74
-44.12
-53.06
-62.53
-73.63
-87.29
-103.90
-122.77
-141.71
-157.01
-164.17
-159.21
-140.24
-108.40
-67.79
-24.21
16.69
50.94
77.08
95.70
108.49
117.11
122.60
125.38
125.62
123.58
119.77
114.80
109.21
103.29
97.15
90.86
84.58
78.55
72.97
67.85
62.99
58.02
52.61
46.59
39.92
32.68
24.84
16.32
6.98
-3.22
-14.13
-25.39
-36.54
-47.12
-56.88
-65.80
-74.21
-82.72
-92.24
-103.71
-117.67
-133.60
-149.49
-161.86
-166.51
-159.91
-140.63
-110.13
-72.54
-33.36
2.30
31.11
52.10
66.20
75.19
80.72
83.77
84.73
83.74
81.14
77.50
73.57
69.97
66.96
64.39
61.86
58.92
55.29
51.03
46.43
41.87
37.59
33.56
29.44
24.66
18.65
11.03
1.82
-8.56
-19.40
-29.88
-39.39
-47.62
-54.71
-61.18
-67.78
-75.42
-84.95
-97.02
-111.55
-127.32
-141.73
-151.08
-151.56
-140.58
-117.98
-86.32
-50.18
-14.73
15.90
39.61
56.38
67.61
75.06
80.18
83.74
86.01
87.08
87.04
86.05
84.31
81.91
78.88
75.18
70.83
65.97
60.79
55.59
50.57
45.86
41.43
37.14
32.79
28.09
22.74
16.44
9.01
0.47
-8.84
-18.42
-27.61
-35.90
-43.06
-49.19
-54.77
-60.56
-67.50
-76.47
-87.88
-101.10
-114.17
-123.88
-126.52
-119.13
-100.73
-72.93
-39.53
-5.38
25.24
49.65
67.26
79.01
86.46
91.04
93.57
94.33
93.39
90.92
87.28
82.99
78.53
74.17
69.90
65.51
60.79
55.66
50.33
45.16
40.51
36.49
32.85
28.97
24.04
17.45
8.95
-1.13
-12.06
-22.93
-32.94
-41.70
-49.27
-56.12
-62.97
-70.64
-79.97
-91.66
-105.88
-121.93
-137.83
-150.42
-155.99
-151.48
-135.67
-109.89
-77.72
-43.88
-12.72
12.94
32.26
45.91
55.25
61.48
65.28
66.91
66.53
64.49
61.43
57.99
54.65
51.47
48.09
44.02
38.95
33.01
26.82
21.22
16.86
13.93
11.91
9.81
6.47
1.03
-6.77
-16.49
-27.18
-37.75
-47.29
-55.39
-62.20
-68.33
-74.68
-82.28
-92.00
-104.25
-118.56
-133.20
-145.21
-150.93
-147.10
-132.10
-106.75
-74.21
-39.09
-5.93
22.07
43.66
59.28
70.36
78.31
84.04
87.86
89.75
89.71
87.99
85.07
81.47
77.56
73.42
68.88
63.72
57.88
51.61
45.45
39.98
35.57
32.13
29.02
25.36
20.20
12.99
3.73
-6.99
-18.23
-29.02
-38.66
-46.93
-54.09
-60.73
-67.70
-75.89
-86.09
-98.72
-113.39
-128.49
-141.18
-147.78
-144.90
-130.67
-105.70
-73.07
-37.51
-3.76
24.74
46.65
62.49
73.81
82.16
88.51
93.13
95.90
96.74
95.80
93.45
90.14
86.16
81.60
76.48
70.87
65.00
59.28
54.03
49.42
45.33
41.36
37.10
32.20
26.49
19.90
12.42
4.05
-5.11
-14.82
-24.66
-34.13
-42.84
-50.70
-57.97
-65.18
-73.08
-82.45
-93.94
-107.67
-122.77
-136.98
-146.92
-148.81
-139.82
-119.33
-89.39
-54.20
-18.77
12.71
37.92
56.55
69.71
78.97
85.55
90.14
92.97
94.14
93.78
92.10
89.31
85.53
80.83
75.31
69.26
63.19
57.72
53.32
50.08
47.60
45.09
41.76
37.08
31.07
24.16
16.92
9.69
2.44
-5.13
-13.31
-22.09
-31.10
-39.73
-47.48
-54.23
-60.35
-66.59
-73.91
-83.23
-94.99
-108.77
-122.83
-134.18
-139.09
-134.29
-118.16
-91.67
-58.24
-22.71
10.20
37.23
57.24
70.88
79.73
85.40
88.92
90.72
90.86
89.43
86.62
82.83
78.40
73.62
68.54
63.15
57.46
51.57
45.68
40.00
34.63
29.51
24.46
19.22
13.57
7.31
0.31
-7.54
-16.24
-25.64
-35.39
-45.03
-54.11
-62.33
-69.65
-76.34
-82.87
-89.96
-98.42
-108.95
-121.67
-135.60
-148.32
-156.34
-155.96
-144.65
-122.16
-90.91
-55.21
-19.94
10.99
35.56
53.64
66.35
75.10
81.00
84.60
86.14
85.79
83.86
80.79
77.00
72.78
68.28
63.50
58.44
53.20
47.96
42.95
38.32
34.13
30.27
26.52
22.54
17.96
12.41
5.61
-2.55
-11.93
-22.11
-32.56
-42.76
-52.34
-61.17
-69.34
-77.17
-85.20
-94.28
-105.35
-118.89
-134.25
-149.14
-159.79
-162.00
-152.66
-131.22
-100.18
-64.43
-29.62
-0.32
21.14
34.93
42.92
47.64
51.30
55.27
59.90
64.55
67.58
66.57
58.80
42.35
17.23
-13.87
-45.80
-72.28
-87.86
-89.78
-78.73
-58.30
-33.53
-9.10
11.85
28.09
39.90
48.26
54.23
58.51
61.31
62.35
61.01
56.38
47.50
33.64
14.53
-9.41
-37.20
-67.42
-98.47
-128.47
-155.15
-175.78
-187.46
-187.96
-176.62
-155.06
-126.93
-96.89
-69.12
-45.96
-27.63
-12.78
0.33
12.76
24.47
34.74
42.72
48.10
51.29
53.18
54.65
56.15
57.54
58.26
57.67
55.50
51.96
47.83
44.10
41.65
40.87
41.51
42.77
43.62
43.14
40.87
36.94
31.95
26.72
21.95
18.05
14.97
12.28
9.21
4.72
-2.21
-12.30
-25.50
-40.57
-54.85
-64.91
-67.52
-60.68
-44.44
-21.00
5.79
31.50
52.37
66.44
73.82
76.26
76.28
76.25
77.72
81.17
86.10
91.50
96.61
100.86
103.69
104.62
103.36
100.06
95.40
90.30
85.60
82.88
83.01
85.64
89.17
91.47
90.87
86.79
79.73
70.95
64.28
62.73
66.87
74.17
80.31
81.38
75.48
63.24
47.51
36.41
37.83
56.22
90.69
136.01
185.32
232.43
273.06
305.22
334.10
365.92
404.46
449.36
497.36
544.91
589.43
628.97
629.79
568.97
443.21
274.38
97.88
-55.32
-167.73
-234.91
-261.75
-257.47
-231.26
-190.58
-142.78
-95.66
-55.89
-27.05
-9.53
-2.09
-4.51
-11.53
-17.82
-20.27
-18.81
-15.51
-12.84
-12.70
-16.22
-23.66
-31.83
-36.94
-36.63
-30.90
-21.67
-11.49
-2.56
3.70
6.55
7.05
6.51
5.54
3.77
0.31
-5.64
-14.47
-26.31
-41.40
-59.72
-81.58
-107.51
-137.99
-172.95
-211.68
-252.96
-295.50
-338.46
-381.55
-425.06
-469.78
-516.84
-567.22
-620.96
-676.05
-727.74
-769.06
-792.54
-792.89
-769.11
-724.99
-667.76
-605.39
-544.04
-486.62
-433.11
-381.88
-331.22
-280.35
-229.52
-179.64
-131.77
-86.84
-45.55
-8.34
24.61
53.26
77.90
99.20
118.44
137.33
157.75
181.10
207.61
236.12
264.24
289.09
308.19
320.23
325.28
324.71
320.57
314.91
309.28
304.32
299.85
295.13
289.29
281.76
272.51
261.87
250.17
237.28
222.34
203.82
180.05
149.80
112.75
69.73
22.70
-25.49
-71.32
-111.01
-141.06
-158.91
-163.65
-156.36
-139.83
-117.84
-94.05
-71.08
-50.03
-30.80
-12.89
3.80
18.50
29.92
36.96
39.54
38.81
36.90
36.16
38.48
44.80
55.19
69.00
85.12
102.26
119.08
134.41
147.46
157.87
165.57
170.50
172.39
170.85
165.66
157.19
146.44
134.78
123.35
112.68
102.59
92.52
82.19
72.03
63.26
57.52
56.15
59.59
67.19
77.62
89.44
101.51
112.99
122.91
129.86
132.00
127.60
115.69
96.46
71.14
41.53
9.36
-23.89
-56.99
-88.65
-117.31
-141.19
-158.64
-168.71
-171.63
-169.06
-163.77
-158.84
-156.63
-157.86
-161.49
-165.36
-167.35
-166.35
-162.66
-157.63
-152.74
-148.90
-146.12
-143.55
-139.89
-133.70
-123.69
-108.97
-89.22
-64.89
-36.95
-6.66
24.71
56.05
86.24
114.08
138.31
157.88
172.30
181.90
187.66
190.90
192.75
193.94
194.69
194.85
194.13
192.26
189.12
184.84
179.77
174.36
168.86
163.04
156.23
147.50
136.37
123.20
109.37
96.80
87.03
80.51
76.35
72.76
67.85
60.34
49.79
36.33
20.33
2.25
-17.03
-35.92
-52.07
-62.95
-66.80
-63.40
-54.22
-41.85
-28.98
-17.52
-8.31
-1.45
3.14
5.41
5.13
2.26
-2.87
-9.72
-17.88
-27.50
-39.32
-54.20
-72.42
-93.19
-114.74
-134.97
-152.30
-166.20
-177.14
-186.02
-193.54
-199.83
-204.62
-207.59
-208.69
-208.15
-206.18
-202.90
-198.43
-193.24
-188.36
-185.16
-184.62
-186.58
-189.35
-190.18
-186.24
-175.81
-158.84
-136.91
-112.43
-87.67
-64.19
-42.77
-23.62
-6.89
7.16
18.20
25.93
30.29
31.33
29.20
24.11
16.48
7.17
-2.30
-9.87
-13.48
-11.91
-5.62
2.93
9.63
9.87
-0.09
-22.00
-55.20
-96.94
-143.26
-189.79
-232.39
-267.37
-291.71
-303.24
-301.06
-285.73
-259.31
-224.79
-185.37
-143.81
-102.03
-61.27
-22.35
13.91
46.56
74.62
97.45
115.07
128.36
138.89
148.37
158.13
168.58
179.22
188.97
196.91
202.83
207.41
211.95
217.59
224.78
232.88
240.43
245.67
247.09
243.77
235.53
222.73
206.10
186.67
165.65
144.43
124.30
106.07
89.77
74.48
58.66
40.67
19.42
-5.24
-32.44
-60.49
-87.30
-110.85
-129.51
-142.39
-149.38
-151.09
-148.45
-142.31
-133.21
-121.32
-106.72
-89.73
-71.12
-52.02
-33.67
-17.07
-2.80
8.94
18.17
25.01
29.55
31.94
32.40
31.34
29.23
26.44
23.01
18.46
11.72
1.51
-13.21
-32.64
-55.82
-80.81
-105.38
-127.84
-147.76
-166.06
-184.66
-205.68
-230.55
-259.49
-291.35
-323.68
-353.23
-376.33
-389.58
-390.52
-378.20
-353.55
-319.10
-278.39
-234.94
-191.43
-149.24
-108.49
-68.50
-28.46
11.91
51.96
90.14
124.42
152.98
174.95
190.77
202.02
210.70
218.33
225.35
231.09
234.42
234.50
231.37
225.92
219.30
212.42
205.62
198.86
192.12
185.66
179.93
175.22
171.30
167.59
163.65
159.89
157.62
158.58
163.79
172.68
182.84
190.80
193.35
188.76
177.18
160.27
140.25
119.05
97.73
76.57
55.31
33.64
11.48
-10.80
-32.43
-52.24
-68.98
-81.58
-89.45
-92.69
-92.23
-89.88
-88.00
-88.95
-94.12
-103.17
-113.79
-122.43
-125.70
-121.97
-112.10
-99.09
-86.72
-78.06
-74.51
-75.98
-81.53
-90.21
-101.17
-113.16
-123.93
-130.15
-128.36
-116.48
-95.09
-67.96
-41.10
-20.93
-12.25
-16.91
-33.57
-58.56
-87.13
-114.83
-138.43
-156.42
-168.90
-177.11
-182.53
-186.00
-187.26
-185.28
-179.00
-168.24
-154.09
-138.29
-122.28
-106.41
-90.15
-73.08
-56.03
-41.50
-32.82
-32.63
-41.53
-57.86
-78.40
-99.66
-118.73
-133.43
-142.03
-142.98
-135.04
-117.68
-91.56
-58.31
-19.84
22.43
67.83
115.96
165.85
215.27
260.78
298.52
325.41
340.19
343.68
338.30
327.28
313.74
300.20
288.47
279.67
274.23
271.73
270.89
269.72
266.05
258.19
245.55
228.78
209.59
190.18
172.54
157.91
146.33
136.70
127.06
115.43
100.77
83.83
67.23
54.62
49.12
51.62
60.00
69.61
75.11
72.63
61.31
43.50
23.45
5.38
-8.22
-17.27
-23.59
-29.86
-38.37
-50.27
-65.31
-81.87
-97.40
-109.03
-114.41
-112.45
-103.72
-90.32
-75.06
-60.50
-48.25
-38.75
-31.68
-26.53
-23.00
-21.15
-21.24
-23.78
-29.35
-38.37
-50.57
-64.22
-75.70
-79.84
-71.22
-45.90
-2.92
55.25
123.59
196.13
267.58
334.08
393.04
442.38
480.08
504.34
514.30
510.70
495.98
473.57
446.68
417.44
386.53
353.80
319.19
283.34
247.60
213.30
181.08
150.45
120.05
88.53
55.29
20.89
-13.12
-45.03
-73.75
-99.32
-123.05
-147.04
-173.53
-204.04
-238.53
-274.83
-308.74
-334.97
-348.73
-347.42
-331.65
-305.03
-272.71
-239.49
-208.45
-180.70
-156.21
-134.99
-117.76
-105.86
-100.33
-101.06
-106.60
-114.65
-123.04
-130.83
-138.76
-149.32
-166.04
-192.68
-232.12
-285.15
-349.35
-418.61
-483.94
-535.63
-566.13
-572.46
-556.99
-526.20
-487.84
-448.27
-410.97
-376.85
-345.82
-318.16
-294.91
-276.98
-263.87
-253.05
-240.52
-222.46
-196.78
-163.86
-126.09
-86.50
-47.20
-8.39
31.50
74.95
124.32
181.15
245.86
317.53
393.40
468.39
535.13
585.18
611.25
609.61
581.32
531.63
467.73
396.21
321.60
246.56
173.19
104.24
43.16
-6.96
-44.91
-71.89
-90.83
-104.51
-113.85
-117.28
-111.45
-93.10
-61.18
-18.01
31.01
78.92
119.53
149.28
168.01
178.34
184.07
188.30
192.37
195.77
196.94
194.64
188.87
180.98
172.69
164.98
156.92
145.55
126.83
97.03
53.82
-3.17
-72.45
-150.72
-232.71
-310.96
-376.63
-421.33
-439.96
-432.97
-406.81
-371.72
-337.84
-311.49
-293.45
-280.06
-266.07
-247.47
-222.93
-193.18
-159.29
-121.30
-77.86
-26.96
32.99
102.27
179.00
258.98
335.93
402.22
450.44
475.36
475.37
452.83
412.97
361.61
303.20
239.86
172.28
101.52
30.59
-35.30
-90.19
-129.57
-152.12
-159.92
-157.05
-147.46
-133.31
-114.46
-89.51
-57.71
-20.44
18.39
53.51
80.20
96.17
102.41
102.56
101.32
102.53
107.86
116.67
126.92
136.33
143.39
147.54
148.84
147.45
143.38
136.64
127.36
115.80
102.18
86.32
67.46
44.36
15.63
-19.83
-62.30
-110.92
-163.56
-217.07
-267.95
-313.09
-350.50
-379.35
-399.58
-411.24
-414.16
-408.09
-393.51
-372.20
-347.38
-322.85
-301.77
-285.47
-272.92
-261.25
-246.82
-226.50
-198.45
-162.34
-118.93
-69.51
-15.62
40.88
97.41
150.45
195.82
229.54
249.00
253.76
245.76
228.79
207.35
185.71
167.13
153.61
145.92
143.80
146.16
151.36
157.53
163.04
166.80
168.56
168.74
168.05
167.03
165.70
163.53
159.61
153.05
143.38
130.90
116.75
102.69
90.64
81.94
76.63
72.83
66.75
53.50
28.72
-9.69
-60.16
-117.32
-173.23
-219.60
-250.20
-262.32
-256.88
-237.27
-207.83
-172.63
-135.17
-98.59
-65.90
-39.61
-21.02
-9.42
-2.13
4.71
14.83
30.70
53.02
81.13
113.68
149.15
185.85
221.63
253.65
278.67
293.77
297.30
289.53
272.63
250.00
225.18
200.72
177.55
154.84
130.57
102.42
68.82
29.70
-13.36
-57.58
-99.83
-137.43
-168.50
-191.80
-206.23
-210.68
-204.27
-187.18
-161.35
-130.57
-99.61
-72.73
-52.24
-37.85
-27.12
-16.63
-3.45
13.91
35.20
58.66
81.52
100.63
113.22
117.70
114.39
105.51
94.65
85.59
81.06
82.13
88.30
98.15
110.09
122.98
136.37
150.57
166.57
185.49
207.91
233.02
258.29
279.90
294.01
298.18
292.21
277.85
257.64
233.46
205.84
174.33
138.65
99.88
60.79
25.30
-2.79
-21.12
-29.34
-29.10
-23.19
-14.55
-5.31
3.49
11.74
19.58
26.70
32.06
34.04
31.10
22.51
8.92
-7.69
-24.53
-38.85
-48.99
-54.87
-57.95
-60.60
-65.00
-72.07
-80.98
-89.46
-94.79
-95.10
-90.50
-83.39
-77.75
-77.90
-87.08
-106.59
-135.66
-171.85
-211.70
-251.29
-286.99
-316.35
-339.24
-358.53
-379.40
-407.09
-443.90
-486.95
-528.37
-558.05
-567.92
-555.28
-523.63
-480.42
-433.41
-387.67
-344.70
-303.79
-264.12
-226.03
-190.86
-159.59
-131.53
-104.03
-73.29
-35.70
11.02
67.29
131.57
200.65
270.23
335.64
392.70
438.57
472.04
493.31
503.14
502.11
490.44
468.32
436.67
397.56
353.86
308.19
261.90
214.81
166.07
115.52
64.74
16.87
-24.53
-56.86
-79.47
-93.41
-100.59
-102.87
-101.69
-98.20
-93.61
-89.15
-85.59
-82.79
-79.64
-74.64
-66.69
-55.76
-42.96
-30.16
-19.45
-12.89
-12.24
-18.95
-34.07
-58.12
-91.00
-132.03
-180.03
-233.27
-289.40
-345.26
-396.92
-440.03
-470.56
-485.68
-484.53
-468.45
-440.72
-405.61
-367.26
-328.72
-291.50
-255.79
-221.22
-187.46
-154.59
-122.97
-92.69
-63.17
-33.02
-0.25
37.41
81.94
134.28
193.46
255.91
315.50
364.66
396.22
405.55
391.92
358.53
311.39
257.48
203.18
153.26
110.66
76.65
51.11
32.91
20.20
10.85
2.95
-4.82
-12.96
-20.99
-27.53
-30.57
-28.24
-19.75
-6.07
10.02
24.89
35.61
41.32
43.60
45.68
51.00
61.73
78.15
98.63
119.99
137.83
146.91
141.86
118.50
75.60
16.19
-52.27
-119.53
-175.30
-212.02
-226.44
-219.76
-196.33
-162.06
-123.04
-84.79
-51.69
-26.52
-9.87
0.25
7.95
18.20
34.86
58.91
87.80
116.24
138.06
148.62
146.40
133.53
115.02
97.09
85.28
82.79
89.59
102.68
117.03
127.33
129.53
122.02
105.67
83.14
57.62
31.90
7.96
-12.96
-29.93
-42.25
-49.50
-51.82
-49.97
-45.16
-38.71
-31.61
-24.39
-17.11
-9.64
-1.80
6.58
15.77
26.07
37.56
49.59
60.39
67.15
66.70
56.77
37.04
9.81
-20.33
-47.54
-66.03
-71.32
-60.93
-34.64
5.69
56.50
113.13
170.82
225.73
275.79
320.69
361.17
397.79
429.90
455.51
472.00
477.36
471.17
454.71
430.39
400.68
367.40
331.68
294.28
256.09
218.24
181.63
146.39
111.62
75.91
38.29
-0.92
-39.71
-74.92
-103.36
-123.04
-133.85
-137.51
-136.83
-134.85
-134.13
-136.42
-142.40
-151.64
-162.50
-172.33
-178.05
-177.15
-168.61
-153.54
-134.87
-116.38
-101.34
-91.43
-86.46
-85.14
-86.33
-90.01
-97.56
-111.15
-132.61
-162.72
-201.34
-248.14
-302.95
-365.24
-432.55
-499.27
-556.77
-595.60
-609.02
-595.91
-561.38
-514.72
-465.65
-421.01
-383.32
-351.56
-323.29
-296.57
-270.69
-245.69
-221.37
-196.74
-170.11
-139.73
-104.39
-63.71
-17.96
32.53
87.74
147.96
213.17
282.21
352.12
418.22
474.88
516.83
540.43
544.42
529.77
499.18
456.17
404.45
347.59
288.85
231.18
177.12
128.74
87.55
54.49
29.97
13.95
5.94
4.99
9.72
18.36
28.88
39.08
46.81
50.20
47.86
39.23
24.71
5.40
-17.37
-42.76
-70.95
-102.96
-140.05
-182.42
-228.17
-273.06
-311.43
-338.07
-350.05
-347.86
-334.98
-316.47
-296.96
-279.21
-263.69
-249.15
-233.81
-216.33
-196.22
-173.73
-149.41
-123.95
-98.14
-73.03
-49.82
-29.62
-13.07
-0.05
10.26
19.04
27.28
35.46
43.45
50.76
56.91
61.68
65.15
67.57
69.13
69.78
69.15
66.65
61.59
53.61
43.10
31.62
21.94
17.53
21.55
35.66
59.30
89.80
123.29
156.05
185.67
211.38
233.63
253.28
270.87
286.28
299.21
309.61
318.15
326.14
335.05
345.78
358.04
370.23
379.90
384.64
383.04
375.21
362.59
347.26
330.89
314.06
296.22
276.19
252.95
226.32
197.04
166.41
135.64
105.39
75.58
45.56
14.44
-18.74
-54.82
-94.36
-137.03
-180.97
-222.41
-256.19
-277.07
-281.63
-269.69
-244.48
-211.60
-177.07
-145.51
-119.29
-98.75
-83.14
-71.77
-64.46
-61.60
-63.72
-71.16
-83.83
-101.22
-122.41
-146.09
-170.64
-194.14
-214.64
-230.52
-240.98
-246.43
-248.30
-248.50
-248.44
-248.30
-246.83
-241.94
-231.69
-215.19
-192.88
-166.33
-137.56
-108.53
-80.91
-56.11
-35.29
-19.22
-7.80
0.22
7.20
16.01
29.19
48.24
73.06
101.75
130.83
155.64
171.23
173.42
159.97
131.30
90.60
43.23
-4.43
-46.19
-77.13
-94.11
-96.02
-83.67
-59.61
-27.80
6.93
39.61
65.97
83.18
90.37
88.73
81.15
71.44
63.31
59.40
60.68
66.40
74.60
82.89
89.19
92.13
91.15
86.36
78.16
67.01
53.12
36.38
16.34
-7.68
-36.44
-70.40
-109.23
-151.35
-193.62
-231.68
-260.90
-277.67
-280.44
-270.07
-249.29
-221.68
-190.64
-158.87
-128.40
-100.75
-77.03
-57.59
-41.53
-26.63
-9.81
11.85
40.03
74.59
113.44
153.10
189.49
218.95
238.78
247.58
245.29
232.98
212.70
187.00
158.52
129.52
101.81
76.43
53.62
33.02
13.73
-4.89
-23.19
-41.04
-57.73
-71.55
-80.53
-83.17
-78.91
-68.71
-53.65
-34.98
-13.99
8.34
32.39
58.57
86.73
115.78
143.00
166.84
186.16
199.81
207.05
209.01
207.16
202.74
196.36
186.96
175.76
164.66
155.14
148.51
147.63
154.89
171.33
196.00
224.42
254.13
283.62
312.01
325.59
315.71
281.99
232.86
191.60
158.72
129.59
100.76
67.95
32.77
0.21
-25.77
-44.27
-57.54
-71.04
-86.84
-105.10
-125.59
-147.82
-170.11
-190.53
-206.80
-216.47
-218.69
-211.28
-193.36
-166.67
-134.60
-100.41
-66.77
-35.31
-7.02
16.54
35.23
49.28
58.86
64.50
67.17
67.71
66.44
62.98
56.10
45.18
29.96
10.40
-13.32
-40.75
-71.19
-103.60
-136.78
-169.75
-201.67
-232.34
-262.36
-292.85
-325.29
-361.34
-402.55
-449.71
-501.90
-555.47
-604.04
-639.74
-655.75
-648.87
-620.91
-578.00
-528.18
-478.65
-433.84
-395.24
-362.52
-334.79
-311.29
-291.02
-272.26
-252.30
-228.18
-197.72
-160.34
-117.12
-70.22
-21.76
27.03
76.33
127.67
183.49
246.04
315.99
390.86
464.41
527.29
569.38
582.96
565.45
520.43
456.36
383.77
312.12
247.91
194.48
153.05
123.87
106.64
100.25
102.27
109.26
117.75
125.53
132.42
140.04
150.63
165.54
184.24
204.37
222.76
236.70
244.96
247.85
246.64
242.46
235.56
225.14
209.95
189.08
162.56
131.32
96.51
58.66
17.12
-29.78
-83.89
-146.10
-215.53
-289.14
-362.12
-428.70
-483.28
-521.58
-541.53
-543.73
-531.07
-507.72
-477.77
-444.16
-408.30
-370.52
-331.05
-290.53
-250.13
-210.88
-172.86
-134.85
-94.60
-49.50
2.59
62.61
129.59
200.00
267.58
324.09
361.40
374.27
362.64
332.11
291.95
251.52
216.93
189.58
167.29
146.92
127.04
108.87
95.28
88.89
90.26
97.61
107.70
117.37
124.66
129.26
131.81
133.04
133.16
131.71
127.96
121.35
111.42
97.32
77.36
49.01
10.01
-40.10
-98.56
-159.27
-214.18
-255.75
-279.26
-283.98
-272.68
-249.89
-219.93
-185.60
-148.09
-107.76
-65.10
-21.16
22.68
65.35
106.48
146.26
184.73
220.99
252.73
276.66
289.45
289.02
275.35
250.69
218.89
184.31
150.55
119.53
91.27
64.15
35.86
4.41
-30.89
-69.17
-108.21
-145.06
-176.82
-201.26
-217.12
-224.06
-222.51
-213.34
-197.58
-176.25
-150.10
-119.66
-85.32
-47.72
-8.12
31.29
67.43
97.12
118.13
130.24
135.59
137.99
141.62
149.49
162.70
180.57
201.37
223.36
245.39
267.15
289.04
311.70
335.46
359.81
383.01
402.23
414.28
416.65
408.48
390.84
366.11
336.95
305.40
272.51
238.73
204.41
170.00
135.84
101.84
67.53
32.55
-2.54
-35.97
-65.00
-86.85
-99.73
-103.43
-99.33
-89.83
-77.68
-65.41
-54.99
-47.51
-43.02
-40.57
-38.55
-35.43
-30.41
-23.84
-16.88
-10.97
-7.20
-6.14
-8.15
-13.77
-23.86
-39.23
-60.11
-85.43
-112.85
-139.28
-161.90
-179.08
-190.83
-198.39
-203.29
-206.31
-206.90
-203.39
-194.00
-177.99
-156.39
-131.75
-107.32
-85.85
-68.96
-57.11
-50.16
-47.87
-50.13
-56.75
-67.01
-79.49
-92.30
-103.69
-112.50
-118.44
-121.92
-123.38
-122.88
-119.92
-113.77
-104.10
-91.43
-77.24
-63.62
-52.77
-46.33
-45.19
-49.52
-58.84
-72.26
-88.93
-108.35
-130.99
-158.65
-194.33
-241.08
-300.04
-368.40
-438.82
-500.81
-544.11
-562.40
-555.67
-529.77
-493.69
-455.78
-421.09
-390.87
-364.19
-340.16
-319.28
-303.11
-292.65
-286.81
-282.07
-273.55
-257.00
-230.54
-195.20
-154.18
-111.21
-68.82
-27.35
14.87
60.50
112.20
171.73
239.40
313.43
389.33
459.64
514.63
544.51
542.54
507.86
446.61
370.43
292.80
225.01
173.48
139.35
120.33
113.22
115.55
125.91
143.03
164.84
188.28
210.04
227.54
239.43
245.62
246.19
240.71
228.11
207.48
179.06
144.88
108.40
73.10
40.99
11.50
-18.45
-53.21
-96.50
-149.48
-209.57
-270.58
-324.26
-362.75
-381.09
-378.74
-359.63
-330.67
-299.33
-271.30
-249.13
-232.17
-217.67
-202.32
-183.53
-159.93
-131.26
-97.85
-60.09
-18.20
27.85
78.34
133.88
195.30
263.14
336.56
412.22
483.82
543.04
581.66
594.21
579.59
541.35
486.35
422.68
357.77
297.17
244.24
200.37
165.53
138.85
119.35
106.32
99.48
98.71
103.49
112.42
123.44
134.24
142.98
148.77
151.63
152.16
151.03
148.70
145.36
141.00
135.37
128.00
117.99
104.21
85.50
61.22
31.72
-1.47
-35.95
-69.06
-98.70
-123.82
-144.53
-161.76
-176.88
-191.39
-206.90
-225.22
-248.29
-277.72
-314.26
-357.12
-403.71
-449.82
-490.23
-519.70
-534.02
-530.95
-510.82
-476.78
-434.31
-390.04
-350.10
-318.43
-295.83
-280.02
-267.00
-252.70
-234.57
-212.06
-186.12
-158.17
-129.12
-99.05
-67.49
-34.06
1.17
37.71
75.23
114.15
155.83
202.10
254.15
311.53
371.77
431.10
485.80
533.41
573.05
604.72
628.07
641.67
643.28
631.02
604.71
566.36
519.65
468.62
416.41
364.69
313.96
264.14
215.15
166.97
119.46
72.08
23.75
-26.69
-79.76
-134.38
-187.44
-234.15
-269.35
-289.21
-292.52
-280.99
-258.33
-228.66
-195.24
-159.99
-123.97
-88.17
-54.12
-23.79
1.02
19.29
31.06
37.19
38.77
36.56
30.58
20.00
3.31
-21.10
-54.40
-96.74
-147.03
-203.07
-261.96
-320.40
-375.04
-422.46
-459.35
-482.82
-491.06
-484.04
-464.02
-435.28
-403.21
-372.90
-347.62
-328.10
-312.58
-297.92
-280.87
-259.31
-232.77
-202.15
-168.91
-134.13
-97.81
-58.70
-14.80
35.65
93.03
155.54
219.10
278.03
326.19
358.38
371.36
364.56
340.39
304.03
262.66
224.06
194.67
177.80
172.74
175.34
179.92
181.78
179.01
172.92
166.90
164.59
168.10
177.22
189.49
201.15
208.28
207.89
198.58
180.86
157.13
131.14
107.17
88.72
76.99
69.92
62.16
46.62
17.15
-28.55
-87.29
-150.69
-207.61
-247.76
-264.83
-258.16
-232.23
-194.65
-153.61
-115.58
-84.09
-59.38
-38.95
-18.70
5.40
35.74
72.02
111.12
148.01
177.40
195.36
200.43
193.82
178.77
159.42
139.65
122.08
107.53
94.76
80.82
61.91
34.79
-1.85
-46.31
-93.99
-138.54
-173.71
-195.26
-201.88
-195.17
-178.50
-155.62
-129.50
-101.86
-73.31
-43.86
-13.42
17.92
49.84
81.90
113.42
143.40
170.30
192.12
206.91
213.60
212.98
207.90
202.82
202.28
209.14
223.58
243.32
265.06
286.33
306.39
325.89
345.40
364.08
379.28
387.69
386.96
377.03
360.08
339.40
317.71
296.19
274.51
251.77
227.59
202.55
177.94
155.03
134.29
115.21
96.60
77.17
56.18
33.77
10.88
-11.28
-31.69
-50.02
-66.74
-82.94
-99.97
-118.94
-140.29
-163.48
-186.93
-208.25
-225.02
-235.68
-240.30
-240.69
-239.74
-240.18
-243.45
-249.13
-255.41
-260.12
-262.00
-261.34
-259.93
-260.11
-263.74
-271.30
-281.71
-292.91
-302.55
-309.00
-311.86
-312.25
-312.63
-316.52
-328.08
-351.19
-388.01
-437.37
-493.82
-548.14
-589.68
-609.75
-604.62
-576.57
-532.70
-482.01
-432.29
-388.37
-351.89
-322.31
-298.21
-277.91
-259.59
-241.24
-220.75
-196.37
-167.31
-133.79
-96.66
-56.81
-14.38
31.75
83.72
143.67
212.06
285.98
358.61
420.24
461.12
474.73
460.26
422.87
371.73
316.80
265.84
222.88
188.55
161.62
140.70
125.19
115.40
111.90
114.88
123.69
136.87
152.43
168.22
182.36
193.23
199.44
199.68
192.69
177.49
153.66
121.67
82.92
39.51
-6.31
-52.65
-98.32
-142.93
-186.50
-228.88
-269.25
-305.82
-336.04
-357.27
-367.54
-366.33
-354.78
-335.45
-311.65
-286.61
-262.73
-241.17
-221.93
-204.15
-186.69
-168.68
-149.77
-130.16
-110.24
-90.25
-69.94
-48.60
-25.16
1.49
32.21
67.30
106.14
147.00
187.13
223.38
253.04
274.91
289.65
299.46
307.07
314.63
322.95
331.49
338.96
343.99
345.82
344.52
341.10
337.23
334.76
334.90
337.35
339.99
339.32
331.76
315.06
289.13
255.82
217.93
178.12
138.40
100.38
65.75
36.49
14.38
0.28
-6.39
-7.52
-5.60
-2.91
-1.01
-0.72
-2.44
-6.33
-12.39
-20.51
-30.64
-43.11
-58.95
-79.65
-106.56
-139.98
-178.67
-219.92
-260.47
-297.59
-329.85
-357.06
-379.53
-397.02
-408.25
-411.08
-403.40
-384.24
-354.32
-316.03
-272.71
-227.69
-183.62
-142.13
-103.91
-68.83
-36.10
-4.28
28.60
64.78
106.15
153.53
206.14
261.31
314.88
362.10
398.70
422.09
431.92
429.92
419.12
402.42
381.72
357.48
329.26
296.56
259.57
219.25
176.73
132.40
85.37
33.46
-25.79
-93.60
-168.24
-244.31
-313.43
-366.49
-396.58
-401.49
-384.27
-351.78
-311.63
-269.36
-226.96
-183.40
-136.52
-85.14
-30.27
24.96
76.30
119.75
152.80
174.91
187.50
193.02
193.60
189.58
179.07
158.79
126.10
81.42
29.25
-22.60
-65.64
-93.85
-105.70
-103.79
-92.96
-77.67
-60.04
-40.01
-16.66
10.09
38.68
66.25
90.23
109.28
123.57
134.82
144.78
154.56
164.28
173.20
179.88
183.47
183.50
179.88
173.77
166.61
159.68
153.52
147.54
139.65
128.13
111.36
88.01
58.33
23.18
-15.58
-55.07
-91.43
-121.02
-139.86
-146.02
-147.47
-151.93
-165.73
-190.17
-220.75
-245.89
-262.43
-270.22
-271.11
-267.83
-262.31
-254.54
-242.83
-224.43
-196.66
-158.66
-110.52
-54.58
4.49
61.65
111.96
151.78
179.25
194.20
197.31
190.92
177.84
160.59
141.62
122.71
104.86
88.38
73.14
58.51
44.45
31.21
19.21
9.50
3.59
3.26
9.96
24.02
43.97
67.06
89.74
108.68
121.70
127.93
127.43
120.44
106.99
87.00
60.93
30.19
-2.85
-35.38
-64.60
-88.02
-103.35
-108.26
-100.66
-79.38
-44.66
1.74
57.19
118.87
184.04
249.51
310.97
362.95
399.84
417.84
416.60
399.55
372.51
341.31
309.70
278.72
247.52
215.00
181.04
146.73
113.66
82.91
54.58
27.74
1.01
-26.76
-56.11
-86.86
-118.31
-149.51
-179.41
-206.95
-231.16
-251.20
-266.44
-276.65
-282.05
-283.31
-281.35
-277.08
-271.07
-263.26
-253.05
-239.54
-222.07
-200.85
-177.27
-153.91
-134.12
-121.37
-118.57
-127.81
-150.41
-186.94
-236.78
-297.22
-362.57
-424.19
-472.15
-498.00
-497.73
-473.34
-431.96
-383.12
-335.17
-292.87
-256.91
-225.30
-195.32
-164.87
-132.71
-98.06
-60.39
-19.67
22.97
65.05
103.35
135.05
158.89
175.70
187.78
197.72
207.15
216.09
223.16
226.29
223.48
213.40
195.63
170.87
140.98
108.92
78.36
52.86
34.98
25.65
24.09
28.41
36.60
47.27
60.03
75.13
92.90
113.16
135.03
157.10
177.71
195.36
208.89
217.63
221.46
220.65
215.86
207.88
197.48
185.02
170.35
152.78
131.16
104.27
71.12
31.11
-16.15
-70.77
-132.51
-200.13
-270.83
-339.97
-401.60
-449.77
-480.12
-491.09
-484.13
-462.75
-431.18
-393.03
-350.71
-305.68
-259.01
-211.81
-165.19
-119.85
-75.91
-33.10
8.85
50.00
90.25
129.43
167.10
202.03
231.37
250.46
253.84
237.58
201.76
151.87
97.83
50.76
18.98
5.04
5.37
12.59
19.20
20.71
16.77
10.33
5.29
4.31
7.68
13.85
20.73
26.97
32.55
38.51
46.29
57.19
71.95
90.55
112.15
134.62
154.35
166.33
165.11
146.50
109.35
56.71
-4.35
-64.46
-114.46
-147.92
-162.50
-159.88
-144.37
-121.20
-94.97
-69.07
-45.68
-26.01
-10.41
1.80
12.49
24.49
40.92
64.03
93.98
128.20
161.47
187.24
199.57
195.08
174.16
140.86
101.45
62.45
28.63
2.12
-17.47
-32.05
-43.92
-54.86
-65.85
-77.14
-88.44
-99.10
-108.18
-114.59
-117.25
-115.32
-108.44
-96.83
-81.20
-62.65
-42.35
-21.52
-1.21
17.76
35.00
50.66
65.43
80.34
96.37
114.04
133.27
153.39
173.41
192.25
208.84
222.07
230.83
234.20
231.96
224.95
215.19
205.40
198.11
194.87
196.06
201.35
210.55
223.92
241.88
264.00
288.17
310.62
326.88
333.49
329.17
315.06
293.78
268.09
239.84
209.74
178.01
145.00
111.54
78.70
47.13
16.62
-13.92
-45.94
-80.32
-116.57
-152.35
-183.85
-206.95
-218.55
-217.84
-206.48
-188.04
-166.61
-145.46
-126.51
-110.51
-97.72
-88.48
-83.27
-82.33
-85.13
-90.20
-95.46
-99.05
-100.05
-98.93
-97.46
-97.96
-102.39
-111.53
-124.73
-140.34
-156.70
-173.24
-190.95
-212.23
-240.07
-277.15
-324.84
-382.45
-446.47
-510.49
-565.90
-603.91
-618.23
-607.35
-575.26
-529.93
-480.17
-432.62
-390.16
-352.46
-317.96
-285.73
-255.98
-229.25
-205.23
-182.28
-158.33
-132.32
-105.37
-80.53
-61.61
-51.37
-50.47
-57.46
-69.54
-83.63
-96.93
-107.06
-111.95
-109.98
-100.33
-83.37
-60.65
-34.38
-6.63
21.34
49.15
77.00
105.19
134.01
163.82
195.09
228.27
263.04
297.87
329.97
356.02
373.41
381.28
380.81
374.65
365.69
355.87
345.59
333.82
318.81
298.85
272.85
240.66
203.06
161.79
119.48
79.42
44.88
18.40
0.92
-8.56
-12.74
-15.15
-18.94
-25.82
-35.46
-45.67
-53.23
-55.16
-49.82
-37.51
-20.30
-1.22
16.76
31.59
42.21
48.21
49.17
44.52
33.84
17.56
-2.60
-23.78
-42.83
-57.36
-66.38
-70.31
-70.40
-67.85
-63.45
-57.59
-50.64
-43.40
-37.10
-33.00
-31.82
-33.45
-36.93
-40.86
-44.01
-45.78
-46.47
-47.05
-48.83
-52.92
-59.71
-68.40
-76.96
-82.40
-81.61
-72.41
-54.37
-29.14
0.06
29.53
56.27
78.68
96.60
110.69
121.74
130.17
135.98
139.11
139.74
138.44
136.03
133.24
130.48
127.77
124.97
121.98
118.97
116.32
114.47
113.59
113.52
113.70
113.46
112.28
109.97
106.72
102.95
99.10
95.38
91.70
87.68
82.64
75.83
66.63
54.86
41.26
27.70
17.08
12.57
16.66
30.15
51.87
79.02
108.27
136.77
162.61
184.63
201.73
212.34
214.57
206.87
188.93
162.15
129.38
94.04
59.20
26.81
-2.34
-28.25
-51.08
-70.65
-86.34
-97.27
-102.85
-103.07
-98.65
-90.85
-81.11
-70.68
-60.29
-50.16
-40.10
-29.71
-18.59
-6.61
5.95
18.35
29.61
38.81
45.49
49.78
52.35
54.02
55.62
57.99
62.16
69.29
80.20
94.44
109.58
121.44
125.09
116.56
94.22
59.37
15.76
-31.55
-77.40
-117.44
-148.65
-169.50
-180.07
-181.91
-177.56
-169.87
-161.09
-152.30
-143.31
-132.85
-118.84
-98.60
-69.36
-29.26
21.35
78.82
136.38
185.72
219.66
234.60
231.71
216.01
194.06
171.35
150.69
132.16
114.24
95.33
74.57
51.86
27.43
1.42
-26.08
-54.63
-83.02
-109.27
-131.01
-146.26
-154.10
-154.95
-150.40
-142.66
-133.94
-125.96
-119.65
-115.14
-112.01
-109.57
-107.25
-104.85
-102.57
-100.72
-99.35
-97.92
-95.49
-91.22
-84.99
-77.70
-70.96
-66.26
-64.19
-64.09
-64.39
-63.38
-59.98
-54.10
-46.48
-38.29
-30.74
-24.96
-21.84
-21.67
-23.70
-25.88
-25.26
-19.10
-6.04
13.20
36.22
60.18
83.13
104.75
126.11
148.87
174.39
203.20
234.81
267.70
299.34
326.53
345.86
354.69
351.95
338.53
316.70
289.17
257.97
223.95
187.11
147.64
106.88
67.67
33.76
8.49
-6.46
-11.67
-9.68
-3.91
2.58
7.81
10.77
10.94
7.91
1.58
-7.39
-17.16
-24.98
-28.19
-25.28
-16.54
-3.87
10.07
22.67
32.00
36.92
37.07
32.67
24.51
13.68
1.31
-11.79
-25.29
-39.10
-52.90
-65.81
-76.45
-83.51
-86.47
-86.15
-84.71
-85.02
-89.65
-100.31
-117.37
-140.20
-167.82
-199.48
-235.11
-275.55
-322.40
-377.23
-440.25
-508.86
-577.08
-636.33
-677.96
-696.27
-690.73
-666.05
-630.09
-590.64
-552.81
-518.28
-486.44
-456.24
-427.51
-400.88
-376.70
-353.98
-330.28
-302.63
-269.02
-229.30
-185.07
-139.00
-93.38
-49.22
-6.01
37.73
83.63
132.63
184.56
238.04
290.59
339.09
380.21
411.13
430.30
437.91
435.87
427.39
415.92
404.36
394.63
387.77
384.47
385.53
391.95
404.31
421.98
442.48
461.65
474.66
477.50
468.26
447.77
418.97
385.56
350.63
315.74
280.94
245.53
208.83
170.68
131.33
90.88
48.84
4.24
-43.51
-93.55
-143.00
-187.34
-221.76
-242.98
-250.37
-245.94
-233.08
-214.85
-192.80
-166.88
-136.24
-100.33
-59.63
-15.55
29.99
75.04
117.69
156.01
187.96
211.76
226.23
231.01
226.54
213.78
193.90
168.27
138.51
106.44
73.81
41.86
11.05
-18.81
-48.01
-76.36
-102.92
-126.24
-145.03
-158.73
-167.68
-172.78
-174.96
-174.86
-172.90
-169.50
-165.37
-161.45
-158.73
-157.89
-159.25
-162.85
-168.57
-176.21
-185.46
-195.69
-205.88
-214.88
-221.66
-225.76
-227.41
-227.35
-226.57
-225.95
-226.03
-227.05
-229.05
-231.97
-235.68
-240.07
-245.00
-250.36
-256.12
-262.21
-268.31
-273.67
-276.86
-275.91
-268.70
-253.47
-229.39
-196.76
-156.97
-112.14
-64.75
-17.29
27.97
69.11
104.62
133.55
155.56
170.93
180.43
185.12
186.14
184.49
180.99
176.25
170.80
165.02
159.18
153.40
147.57
141.38
134.34
125.95
115.82
103.78
89.99
74.87
59.07
43.20
27.73
12.71
-2.24
-17.81
-34.66
-52.94
-71.89
-89.75
-104.09
-112.40
-112.86
-104.88
-89.22
-67.79
-43.02
-17.27
7.68
30.69
51.25
69.09
83.94
95.46
103.39
107.72
108.90
107.71
105.06
101.70
97.93
93.74
88.99
83.67
78.07
72.71
68.01
64.03
60.30
56.00
50.28
42.63
33.09
22.24
10.90
-0.32
-11.23
-22.16
-33.69
-46.38
-60.56
-76.26
-93.28
-111.21
-129.34
-146.43
-160.67
-169.88
-172.07
-166.05
-151.92
-131.11
-105.98
-79.21
-53.33
-30.54
-12.74
-1.60
1.67
-3.22
-15.13
-31.23
-47.33
-58.87
-62.18
-55.63
-40.18
-18.96
3.79
24.04
39.02
47.63
50.31
48.54
44.29
39.56
36.01
34.67
35.80
38.90
42.96
46.92
50.11
52.37
54.03
55.69
58.02
61.71
67.35
75.26
85.11
95.85
105.92
113.88
119.09
121.97
123.64
125.13
126.54
127.04
125.49
121.44
115.94
111.40
110.76
116.24
128.51
146.42
167.50
188.85
207.83
222.44
231.39
234.09
230.76
222.58
211.58
200.26
190.91
184.81
181.82
180.50
178.86
175.15
168.50
158.88
146.46
130.87
110.77
83.98
48.04
1.21
-56.50
-122.56
-191.90
-257.92
-314.15
-356.02
-381.88
-392.69
-390.82
-378.40
-356.43
-324.77
-283.01
-231.25
-170.47
-102.42
-29.42
45.36
117.67
182.16
233.26
266.72
281.05
277.88
261.18
235.70
205.52
173.37
140.95
109.50
80.18
53.96
31.15
11.21
-7.05
-24.79
-42.47
-59.53
-74.74
-86.76
-94.81
-98.99
-99.97
-98.61
-95.48
-90.79
-84.64
-77.41
-69.85
-62.99
-57.66
-54.08
-51.83
-50.09
-48.00
-44.86
-39.84
-31.62
-18.26
2.39
31.93
70.39
115.82
164.63
212.81
257.39
297.22
332.68
364.49
392.42
414.70
428.69
432.23
424.92
408.59
386.45
361.83
336.71
311.36
284.79
255.85
224.02
189.68
153.89
118.02
83.52
51.89
24.49
2.33
-14.24
-25.66
-32.97
-37.36
-39.90
-41.30
-42.00
-42.33
-42.53
-42.55
-42.02
-40.46
-37.63
-33.95
-30.39
-28.07
-27.70
-29.41
-33.06
-38.77
-47.04
-58.36
-72.35
-87.30
-100.41
-108.99
-111.70
-109.19
-103.64
-97.41
-91.71
-86.07
-79.06
-69.63
-58.36
-47.60
-40.69
-40.51
-48.28
-63.11
-82.65
-104.16
-125.71
-146.65
-167.45
-188.98
-211.62
-234.74
-256.64
-274.79
-286.49
-289.46
-282.40
-265.51
-240.75
-211.59
-182.33
-157.01
-138.49
-127.80
-124.53
-127.60
-136.40
-151.57
-175.17
-209.99
-257.95
-318.38
-386.62
-454.29
-511.17
-548.36
-561.41
-551.74
-525.78
-492.04
-457.76
-426.76
-399.51
-374.75
-351.58
-330.46
-312.70
-299.01
-288.24
-277.25
-261.99
-239.19
-207.58
-168.30
-124.24
-78.52
-33.24
11.27
56.21
103.39
154.20
209.07
267.63
329.07
392.23
454.92
513.15
560.93
591.33
598.69
580.82
540.11
482.76
416.54
348.38
282.98
223.18
171.12
129.40
101.07
88.44
91.78
108.61
134.34
163.78
192.61
218.24
239.67
256.39
267.40
270.81
264.33
246.33
216.74
177.26
130.58
79.11
23.87
-35.65
-100.59
-171.34
-246.14
-320.75
-389.12
-444.91
-483.20
-501.83
-501.78
-486.70
-461.70
-431.98
-401.66
-373.18
-347.45
-324.43
-303.90
-285.82
-270.33
-257.32
-246.03
-234.92
-222.14
-206.14
-186.30
-163.14
-138.02
-112.54
-87.79
-63.92
-40.14
-15.12
12.48
43.60
78.45
116.46
156.14
194.97
229.65
256.74
273.83
280.90
280.99
279.84
284.06
298.71
325.26
361.12
400.84
438.34
468.99
490.57
502.79
506.19
501.13
487.50
465.10
434.31
396.42
353.38
307.20
259.41
210.88
162.05
113.34
65.54
19.86
-22.27
-59.39
-90.35
-114.38
-131.16
-140.71
-143.31
-139.42
-129.80
-115.51
-98.06
-79.34
-61.49
-46.62
-36.46
-32.00
-33.31
-39.59
-49.36
-60.86
-72.44
-82.82
-91.23
-97.32
-101.00
-102.28
-101.19
-97.87
-92.74
-86.68
-80.95
-76.70
-74.45
-73.73
-73.34
-72.20
-70.12
-68.07
-67.47
-69.08
-72.07
-74.03
-72.06
-64.14
-50.25
-32.40
-13.68
3.04
16.20
25.89
33.47
40.91
50.12
62.45
78.51
98.01
119.54
140.69
158.48
170.24
174.79
172.81
166.43
157.82
147.45
133.16
110.58
75.35
25.99
-33.96
-95.91
-148.64
-182.22
-191.40
-177.20
-145.75
-105.43
-63.57
-24.48
10.75
42.89
72.82
100.38
124.46
144.05
159.07
170.60
180.08
188.33
195.02
198.90
198.68
193.92
185.25
173.90
160.84
146.30
129.82
110.80
89.19
65.62
41.02
15.98
-9.79
-37.56
-69.09
-105.84
-148.32
-195.64
-245.47
-294.24
-337.66
-371.39
-391.91
-397.34
-388.00
-366.36
-336.44
-302.61
-268.49
-236.07
-205.43
-175.12
-142.90
-106.48
-64.25
-15.76
37.88
93.84
147.73
194.36
228.91
248.29
252.02
242.33
223.25
199.25
173.96
149.44
126.26
104.14
82.69
62.00
42.78
26.04
12.80
3.79
-0.64
-0.60
3.44
10.55
19.32
27.81
33.74
34.75
29.04
15.96
-3.32
-25.76
-47.07
-63.02
-70.88
-70.44
-63.87
-54.46
-44.87
-35.66
-25.04
-9.93
12.21
41.91
77.51
116.15
155.31
193.66
230.55
265.18
295.51
318.36
330.02
328.00
312.26
285.25
250.78
212.39
172.81
134.12
98.50
68.39
46.32
34.25
32.73
40.47
54.16
69.91
84.27
95.20
101.22
101.59
96.21
85.68
71.13
52.79
31.54
9.03
-11.61
-28.89
-42.47
-52.80
-60.22
-64.81
-68.90
-73.64
-78.63
-80.45
-79.37
-77.97
-80.17
-88.65
-104.46
-130.73
-167.74
-212.82
-258.30
-302.10
-345.65
-392.63
-445.52
-504.71
-572.72
-646.69
-717.74
-769.47
-793.72
-790.11
-765.28
-727.90
-653.52
-534.53
-381.28
-246.06
-138.63
-57.64
7.03
56.95
93.58
120.13
136.57
145.72
153.20
170.02
199.12
238.59
283.60
330.34
375.87
413.65
438.66
448.32
445.84
430.98
403.11
362.44
312.48
258.84
205.20
155.46
113.50
84.84
70.86
70.76
82.44
104.03
133.36
166.41
199.25
228.99
255.40
278.10
297.01
311.93
322.66
328.60
328.35
320.56
304.43
280.38
248.96
211.22
168.56
122.64
74.96
26.57
-21.62
-68.38
-111.68
-148.96
-178.02
-198.04
-210.18
-217.07
-221.55
-225.28
-228.02
-228.04
-223.42
-213.32
-198.56
-181.23
-163.57
-146.96
-131.55
-116.72
-101.79
-86.67
-71.89
-58.31
-46.60
-36.90
-28.89
-22.09
-16.20
-11.22
-7.37
-4.92
-4.02
-4.74
-7.13
-11.24
-17.06
-24.38
-32.81
-41.81
-50.84
-59.55
-67.86
-76.02
-84.35
-93.05
-101.77
-109.52
-114.78
-115.98
-112.13
-103.19
-90.19
-74.78
-58.68
-43.08
-28.48
-14.87
-2.10
9.72
20.28
29.19
36.34
42.01
46.74
51.15
55.57
60.00
64.15
67.68
70.50
72.91
75.45
78.64
82.59
86.78
90.14
91.48
89.97
85.57
79.07
71.69
64.55
58.12
52.18
46.12
39.45
32.11
24.43
16.61
8.38
-1.09
-12.56
-25.99
-40.06
-52.40
-60.48
-62.78
-59.58
-52.94
-45.94
-41.47
-41.14
-44.88
-51.21
-58.04
-63.52
-66.75
-67.98
-68.53
-70.36
-75.49
-85.40
-100.61
-120.49
-143.43
-167.36
-190.34
-211.11
-229.15
-244.42
-256.85
-265.91
-270.70
-270.45
-265.13
-255.71
-243.98
-231.89
-220.81
-211.27
-203.16
-196.23
-190.56
-186.63
-184.99
-185.72
-188.13
-190.83
-192.13
-190.55
-185.27
-176.23
-163.98
-149.45
-133.48
-116.98
-100.92
-86.39
-74.39
-65.21
-58.47
-53.43
-49.05
-44.10
-37.49
-28.65
-17.62
-5.18
7.83
20.50
32.01
41.90
50.83
59.73
69.14
78.78
87.16
93.34
96.79
97.50
96.15
95.58
98.31
105.21
115.07
124.00
130.38
133.75
134.03
131.56
130.21
133.23
141.72
154.22
165.53
175.63
186.52
199.88
216.86
243.28
283.06
336.08
397.43
455.81
508.33
556.03
600.48
643.47
693.02
754.82
829.43
911.16
985.52
1047.88
1097.27
1132.60
1103.96
980.36
764.81
498.70
273.58
103.83
-18.47
-105.33
-175.26
-235.71
-282.91
-312.70
-325.14
-326.51
-331.92
-345.69
-366.83
-392.90
-420.31
-441.36
-451.18
-450.40
-445.44
-448.73
-462.07
-480.07
-493.83
-493.33
-468.69
-416.28
-340.62
-252.97
-169.40
-98.61
-43.27
-2.37
27.42
50.91
72.04
93.10
114.55
134.11
150.68
162.68
167.69
163.85
151.51
133.70
115.44
101.72
94.87
94.59
97.58
98.94
94.66
83.12
65.41
44.08
21.43
-1.67
-25.82
-52.11
-81.13
-112.38
-144.51
-176.02
-205.67
-232.59
-255.77
-273.63
-283.99
-284.62
-274.12
-252.80
-222.89
-188.13
-152.72
-120.15
-92.41
-69.90
-51.95
-37.57
-26.05
-17.10
-10.59
-6.22
-3.48
-1.72
-0.40
0.76
1.92
3.25
4.93
7.14
9.81
12.56
14.86
16.16
16.07
14.32
10.81
5.62
-0.88
-8.02
-14.99
-21.18
-26.53
-31.59
-37.25
-44.24
-52.68
-61.95
-70.78
-77.61
-80.88
-79.48
-73.15
-62.85
-50.82
-39.99
-32.99
-31.18
-34.21
-40.48
-48.26
-56.67
-65.98
-77.13
-90.77
-106.64
-123.71
-140.90
-157.86
-175.42
-195.13
-218.43
-245.66
-275.55
-305.31
-331.31
-350.04
-359.08
-357.72
-347.00
-329.44
-308.14
-286.05
-265.25
-246.79
-230.81
-217.04
-205.14
-194.96
-186.43
-179.26
-172.68
-165.30
-155.40
-141.32
-122.09
-97.72
-69.06
-37.42
-3.94
30.89
67.48
106.92
150.73
200.54
257.78
323.15
395.86
472.83
548.44
615.29
665.92
694.99
700.80
685.53
654.00
611.68
562.89
510.09
454.21
395.67
335.40
275.23
217.60
164.89
118.72
79.65
47.29
20.70
-1.14
-18.96
-33.37
-45.01
-54.80
-63.87
-73.24
-83.31
-93.57
-102.62
-108.64
-109.91
-105.38
-94.84
-78.92
-58.88
-36.28
-12.82
10.00
31.05
49.66
65.65
79.21
90.67
100.26
107.94
113.29
115.56
113.79
106.97
94.16
74.75
48.59
16.42
-20.17
-58.96
-97.88
-135.88
-173.43
-212.41
-255.08
-302.99
-355.90
-411.48
-465.73
-513.80
-551.03
-573.85
-580.50
-571.44
-549.32
-518.44
-483.61
-448.88
-416.52
-386.72
-358.15
-329.04
-298.06
-264.85
-229.66
-192.93
-154.80
-114.97
-72.94
-28.25
19.47
70.45
124.52
180.31
234.59
282.12
316.88
334.32
333.63
318.74
297.14
277.12
264.57
260.98
263.60
267.26
266.83
259.17
243.79
222.40
197.94
173.59
152.13
135.43
124.27
118.32
116.54
117.44
119.40
120.98
121.13
119.51
116.68
113.85
111.89
110.13
105.52
93.06
67.75
27.28
-25.90
-84.44
-138.08
-177.17
-195.71
-192.92
-172.58
-140.94
-104.61
-69.01
-37.92
-13.45
4.06
16.27
27.01
41.51
64.71
99.12
143.18
191.18
234.75
265.68
278.51
272.16
249.76
217.19
180.80
145.40
113.11
83.48
54.36
23.31
-11.17
-48.91
-87.98
-125.30
-157.31
-180.88
-193.71
-194.65
-183.74
-162.09
-131.71
-95.19
-55.32
-14.71
24.40
60.28
91.66
117.60
137.42
150.56
156.67
155.72
148.34
135.97
120.71
104.93
90.56
78.57
68.75
60.11
51.60
42.74
33.93
26.26
21.08
19.59
22.64
30.60
43.44
60.64
81.17
103.77
127.31
151.31
176.15
202.95
232.93
266.46
302.18
336.78
365.53
383.63
387.69
376.90
353.20
320.43
282.98
244.47
206.99
171.20
136.83
103.22
69.56
34.96
-1.26
-39.02
-76.66
-110.77
-136.72
-150.20
-148.87
-133.43
-107.55
-76.49
-45.41
-17.93
4.42
21.60
34.24
42.76
47.13
47.08
42.67
34.57
24.01
12.34
0.39
-12.03
-25.97
-42.74
-62.95
-85.83
-109.25
-130.40
-146.88
-157.59
-162.94
-164.29
-163.17
-160.51
-156.56
-151.27
-145.16
-139.72
-137.51
-141.51
-154.25
-177.11
-210.23
-253.10
-304.88
-364.10
-427.75
-490.30
-543.99
-580.46
-593.69
-582.33
-550.49
-506.14
-458.06
-412.85
-373.58
-340.17
-310.86
-283.86
-257.77
-231.42
-203.25
-171.10
-132.57
-85.74
-30.00
33.39
101.12
168.58
231.09
285.25
329.76
365.14
392.42
411.53
420.55
416.36
396.48
361.12
314.02
261.45
209.91
163.85
124.62
91.26
62.47
38.27
20.50
11.79
13.80
25.79
44.58
65.64
84.73
99.03
107.36
109.53
105.30
93.71
73.05
41.32
-2.99
-60.19
-128.78
-205.06
-283.14
-355.53
-414.46
-453.60
-469.80
-464.04
-441.20
-408.62
-373.93
-342.90
-318.06
-298.70
-281.95
-264.42
-243.77
-219.45
-192.21
-163.30
-133.29
-101.52
-66.39
-25.94
21.53
77.25
141.72
214.07
290.91
365.58
428.67
470.47
484.49
470.28
434.02
386.12
337.20
294.23
259.07
229.45
201.87
174.21
146.80
121.94
102.28
89.63
84.52
86.56
94.79
107.68
123.08
137.83
148.13
150.55
143.01
125.63
100.76
72.08
43.42
17.75
-3.62
-21.30
-37.86
-57.38
-84.38
-122.03
-170.26
-224.75
-277.46
-319.17
-342.63
-345.17
-329.17
-300.58
-265.99
-230.13
-194.72
-158.93
-121.02
-79.92
-35.96
9.49
54.97
99.68
143.63
186.91
228.73
266.70
297.13
316.27
321.83
313.99
295.32
269.49
239.64
207.26
172.11
133.23
90.18
44.04
-2.54
-46.06
-83.45
-113.03
-135.04
-151.22
-163.87
-174.72
-184.18
-191.26
-194.08
-190.71
-180.06
-162.12
-137.86
-108.76
-76.34
-41.99
-6.98
27.26
58.99
86.34
107.71
122.29
130.53
134.10
135.47
137.18
141.17
148.43
159.02
172.60
189.09
209.11
233.91
264.60
301.03
340.86
379.48
411.06
430.31
434.37
423.63
401.39
372.17
340.02
307.33
274.71
241.86
208.33
173.90
138.35
101.39
62.97
24.18
-12.11
-41.51
-59.52
-63.37
-53.38
-33.06
-7.82
16.85
36.70
49.16
52.92
47.46
33.00
10.90
-16.18
-44.55
-70.52
-91.55
-106.77
-116.77
-122.96
-127.08
-130.93
-136.34
-144.99
-157.77
-174.06
-191.83
-208.31
-221.59
-231.91
-241.92
-255.89
-278.19
-312.03
-358.51
-416.20
-480.82
-545.42
-601.26
-639.69
-654.69
-645.03
-614.83
-572.09
-525.81
-483.01
-447.15
-418.19
-394.03
-372.00
-349.80
-325.60
-297.82
-265.04
-226.18
-180.92
-129.66
-73.36
-13.17
50.40
117.85
190.62
269.91
354.89
441.09
520.14
581.57
615.99
618.50
590.27
537.80
470.20
396.10
321.75
251.00
186.25
129.63
83.16
48.09
24.01
8.72
-1.12
-8.77
-16.51
-25.30
-35.12
-45.49
-56.12
-67.11
-78.99
-92.45
-108.11
-126.22
-146.60
-168.51
-190.70
-211.46
-228.82
-241.03
-246.90
-246.15
-239.45
-228.07
-213.47
-196.89
-179.16
-160.79
-142.04
-123.04
-103.67
-83.57
-62.30
-39.63
-15.93
7.76
30.01
49.59
65.99
79.53
91.07
101.54
111.43
120.57
128.32
133.81
136.43
136.29
134.52
133.49
136.66
147.89
170.32
205.14
250.66
302.36
354.03
399.43
434.04
455.77
464.76
462.28
449.73
428.18
398.43
361.65
319.46
273.75
225.96
176.61
125.47
72.47
18.71
-33.14
-79.43
-116.92
-144.17
-162.07
-173.33
-181.13
-187.85
-194.47
-200.75
-206.00
-209.78
-212.21
-213.96
-216.04
-219.76
-226.70
-238.43
-256.05
-279.41
-306.60
-333.93
-356.68
-370.18
-371.14
-358.43
-333.27
-298.68
-258.65
-217.12
-177.18
-140.62
-107.77
-77.69
-48.83
-19.66
10.50
41.12
70.65
97.15
119.36
137.35
152.82
168.54
187.17
210.00
236.04
262.03
283.64
297.26
301.72
298.60
291.32
282.96
274.34
263.46
246.42
219.37
180.23
129.19
68.44
1.46
-67.13
-131.49
-184.53
-218.86
-228.74
-212.22
-172.35
-116.53
-54.37
5.17
55.88
95.05
122.85
141.11
152.00
157.36
158.48
156.14
150.74
142.48
131.61
118.64
104.56
90.90
79.29
70.65
64.36
57.85
46.83
26.29
-8.04
-58.01
-121.88
-194.02
-265.84
-327.84
-372.35
-395.94
-400.46
-392.02
-378.36
-365.66
-356.40
-349.14
-340.16
-325.66
-303.47
-273.22
-235.39
-189.96
-135.93
-72.07
1.37
81.15
160.42
230.11
281.62
309.79
314.60
301.01
276.66
248.92
222.51
198.72
176.52
154.40
132.01
110.51
91.86
77.48
67.42
60.34
54.44
48.50
42.59
38.00
36.37
38.89
45.53
55.04
65.39
74.38
80.02
80.68
75.20
63.30
46.09
26.49
8.85
-2.32
-3.88
4.74
21.59
43.47
67.78
93.70
122.12
154.22
189.98
227.49
263.73
296.13
323.73
347.25
367.83
385.59
398.95
405.18
401.96
388.77
367.32
340.69
311.83
282.50
252.98
222.84
191.82
160.36
129.46
100.06
72.49
46.33
20.67
-5.56
-33.18
-62.46
-92.89
-123.02
-150.32
-171.70
-184.31
-186.58
-179.05
-164.26
-145.87
-127.39
-111.02
-97.39
-86.08
-76.48
-68.33
-61.71
-56.50
-51.88
-46.37
-38.60
-28.32
-17.04
-7.95
-4.78
-10.22
-24.56
-45.36
-68.32
-88.88
-104.04
-113.28
-118.36
-122.15
-127.00
-133.63
-140.88
-146.44
-148.13
-145.04
-138.16
-130.20
-124.66
-124.75
-132.35
-147.57
-168.73
-192.93
-216.99
-238.56
-257.24
-275.09
-296.26
-325.36
-364.98
-413.57
-464.83
-509.26
-537.44
-543.52
-527.27
-493.60
-450.07
-403.74
-359.07
-317.66
-279.38
-243.90
-211.55
-183.05
-158.67
-137.48
-117.41
-95.90
-70.90
-41.54
-8.06
28.75
68.52
111.76
159.63
212.97
271.15
331.27
388.39
436.68
471.05
488.50
488.64
473.20
444.95
406.55
360.05
307.09
249.68
190.77
134.10
83.39
41.03
7.43
-18.85
-39.96
-57.31
-70.57
-77.92
-77.10
-66.71
-47.00
-19.68
12.79
48.09
84.33
119.96
153.45
183.30
208.18
227.30
240.51
248.20
250.98
249.46
244.08
235.10
222.64
206.58
186.52
161.85
131.94
96.44
55.53
10.09
-38.46
-88.39
-138.34
-187.76
-237.14
-287.76
-340.91
-396.79
-453.65
-507.48
-552.79
-584.08
-597.73
-593.24
-573.38
-543.15
-507.79
-471.12
-434.63
-397.84
-359.57
-319.36
-278.11
-237.70
-199.85
-164.92
-131.33
-96.07
-55.78
-7.87
48.74
113.09
181.90
249.56
308.54
350.88
370.43
365.26
338.96
300.06
259.32
226.12
205.46
196.80
195.24
194.16
188.16
174.83
154.89
131.12
106.76
84.46
65.83
51.71
42.66
39.20
41.53
49.15
60.52
73.16
84.34
91.96
95.36
95.52
94.29
93.00
91.02
85.10
70.19
41.69
-1.81
-56.64
-114.33
-164.25
-197.29
-208.97
-200.56
-177.64
-147.39
-115.96
-86.94
-61.44
-39.10
-18.86
0.63
21.00
44.06
71.19
102.43
135.99
168.32
195.06
212.34
217.85
211.28
194.15
169.08
139.04
106.65
73.64
40.73
7.68
-26.22
-61.40
-97.16
-131.26
-160.12
-179.80
-187.32
-181.72
-164.44
-138.77
-108.80
-78.12
-48.96
-22.01
3.18
27.55
51.89
76.42
100.65
123.25
142.33
155.69
161.72
160.09
152.31
141.44
131.10
124.14
121.83
123.78
128.71
135.50
143.83
154.25
167.87
185.97
209.76
239.96
276.19
316.32
356.15
390.08
412.60
420.16
412.30
391.53
362.04
327.98
292.26
256.29
220.53
185.15
150.35
116.09
81.83
46.55
9.45
-29.15
-67.25
-101.35
-127.47
-142.60
-145.83
-138.66
-124.43
-107.11
-90.10
-75.50
-63.94
-55.04
-48.06
-42.46
-38.31
-36.30
-37.62
-43.42
-54.21
-69.43
-87.25
-105.03
-120.03
-130.14
-134.32
-132.62
-125.93
-115.60
-103.22
-90.55
-79.70
-72.94
-72.59
-80.61
-98.23
-125.85
-163.40
-210.79
-267.79
-333.20
-403.51
-472.16
-530.25
-568.92
-582.53
-570.99
-539.71
-497.33
-452.07
-408.87
-368.65
-329.74
-290.25
-249.62
-208.89
-169.33
-131.07
-92.50
-50.62
-2.05
56.25
126.11
207.11
295.65
384.54
463.77
522.95
554.52
556.42
532.60
491.10
440.76
388.10
335.96
284.26
231.80
177.59
121.22
62.38
0.85
-62.63
-124.94
-179.92
-219.48
-236.51
-227.78
-195.95
-149.07
-97.82
-52.20
-18.84
-0.25
4.13
-3.84
-22.59
-51.43
-90.01
-137.39
-191.28
-247.82
-302.07
-348.80
-383.64
-403.70
-408.05
-397.73
-375.37
-344.63
-309.50
-273.51
-239.07
-207.02
-176.56
-145.76
-112.54
-75.88
-36.71
1.95
36.07
62.38
80.19
92.28
104.29
122.59
151.58
191.63
238.51
284.59
321.28
341.59
342.05
323.29
289.64
247.87
205.57
169.37
143.54
129.06
123.66
122.72
120.86
113.88
100.14
81.05
60.45
43.08
32.86
31.70
39.03
52.39
68.30
83.38
95.09
102.13
104.52
103.21
99.71
95.26
90.02
82.55
69.62
46.86
10.01
-43.38
-112.23
-191.11
-270.86
-340.78
-391.82
-419.19
-423.49
-409.70
-384.57
-353.94
-321.16
-287.26
-252.23
-216.31
-180.42
-145.31
-110.51
-73.79
-31.67
19.27
80.90
152.38
229.55
305.04
369.74
414.98
435.35
430.71
406.52
371.87
335.97
304.70
278.97
255.53
229.81
198.92
163.26
125.99
91.00
60.66
34.72
10.81
-13.95
-41.25
-70.56
-99.37
-124.30
-142.56
-152.97
-156.34
-154.86
-151.05
-146.63
-141.68
-134.52
-122.27
-101.97
-71.89
-32.54
13.09
60.15
103.25
137.82
161.25
173.29
175.88
172.51
167.30
164.13
165.84
173.74
187.58
205.92
226.96
249.42
273.02
298.23
325.31
353.30
379.48
399.91
410.75
409.77
397.13
375.13
347.10
315.96
283.40
249.82
215.00
178.93
142.10
105.22
68.69
32.26
-4.64
-42.10
-79.05
-113.15
-141.68
-162.85
-177.01
-186.84
-196.22
-208.49
-224.80
-243.61
-261.53
-275.10
-282.39
-283.58
-280.51
-275.32
-269.31
-262.36
-253.23
-240.36
-222.68
-200.20
-174.07
-146.31
-119.26
-94.93
-74.47
-57.90
-44.33
-32.57
-21.95
-12.80
-6.44
-4.42
-7.50
-14.90
-24.23
-32.24
-36.27
-35.47
-31.55
-28.42
-31.07
-44.20
-71.18
-113.47
-170.30
-238.34
-311.51
-381.36
-438.45
-474.70
-485.83
-472.72
-440.92
-398.46
-353.02
-309.74
-270.71
-235.88
-204.34
-175.32
-148.16
-121.83
-94.53
-63.93
-27.72
15.79
67.19
125.71
188.99
253.21
313.55
365.05
403.81
427.80
437.03
432.93
417.36
391.78
357.12
314.21
264.49
210.35
155.09
102.26
54.99
15.56
-14.74
-35.31
-45.91
-46.47
-37.07
-18.39
7.86
38.68
70.19
98.39
120.39
135.02
142.80
144.96
142.16
133.72
117.73
92.21
56.47
11.89
-38.36
-90.61
-142.03
-191.47
-239.05
-284.99
-328.35
-366.60
-396.34
-414.75
-420.86
-416.05
-403.37
-386.26
-367.42
-348.21
-328.92
-309.40
-289.62
-269.88
-250.63
-232.05
-213.80
-195.07
-174.82
-152.27
-127.16
-99.87
-71.22
-42.14
-13.20
15.65
45.08
76.19
110.21
148.13
190.34
236.21
283.72
329.68
370.27
402.20
423.86
435.89
440.94
442.60
443.91
446.40
449.82
452.82
453.87
451.93
446.52
437.41
424.14
405.99
382.24
352.75
318.16
279.83
239.28
197.53
154.80
110.89
65.83
20.65
-22.53
-60.97
-92.33
-115.58
-131.40
-141.83
-149.48
-156.64
-164.86
-174.87
-186.94
-201.05
-216.90
-233.84
-250.79
-266.62
-280.52
-292.46
-303.08
-313.10
-322.63
-330.73
-335.54
-335.06
-327.94
-313.98
-294.01
-269.51
-242.12
-213.59
-185.71
-160.20
-138.24
-119.92
-104.03
-88.53
-71.75
-53.49
-35.46
-20.45
-10.57
-5.54
-2.01
5.76
23.83
56.26
103.26
160.82
222.10
279.98
329.61
369.56
401.04
425.72
443.51
451.76
446.37
424.15
384.70
330.76
266.94
198.09
128.25
60.94
-0.04
-50.30
-85.69
-103.93
-105.78
-94.91
-76.40
-54.98
-33.87
-14.64
2.19
16.55
28.76
39.73
51.12
64.75
81.76
101.63
122.06
139.48
149.99
150.75
140.82
121.51
95.98
68.36
42.37
20.34
2.71
-11.70
-24.63
-37.33
-49.87
-61.30
-70.43
-76.80
-81.38
-86.56
-95.59
-111.50
-136.06
-169.09
-208.41
-250.45
-291.14
-326.80
-354.73
-373.21
-381.38
-379.07
-366.79
-345.87
-318.51
-287.50
-255.76
-225.76
-199.10
-176.42
-157.55
-141.82
-128.28
-115.91
-103.68
-90.57
-75.57
-57.70
-36.20
-10.79
17.88
48.22
77.79
103.79
123.79
136.42
141.82
141.71
139.02
137.08
138.63
145.05
155.92
169.29
182.37
192.42
197.33
196.13
188.95
176.95
162.07
146.64
132.87
122.34
115.62
112.26
111.10
110.89
110.77
110.56
110.64
111.55
113.45
115.87
117.58
116.95
112.41
102.97
88.39
69.11
45.93
19.65
-9.08
-39.66
-71.29
-102.66
-131.59
-154.97
-169.01
-170.06
-155.65
-125.62
-82.50
-30.91
23.99
78.24
130.17
180.14
229.07
276.58
320.05
354.98
376.71
382.44
372.44
349.93
319.78
286.80
254.39
224.04
195.72
168.76
142.93
118.98
98.64
83.92
76.18
75.09
78.38
82.23
82.46
75.75
60.53
37.08
7.09
-26.94
-62.23
-96.00
-125.83
-150.08
-168.23
-180.91
-189.32
-194.34
-195.59
-191.38
-179.50
-158.64
-129.69
-96.10
-63.01
-35.56
-17.29
-9.48
-11.51
-22.02
-40.06
-65.43
-98.48
-139.47
-188.21
-243.83
-304.57
-367.32
-427.16
-477.63
-511.84
-524.59
-514.34
-483.93
-439.51
-388.20
-335.65
-284.77
-236.15
-189.48
-144.95
-103.71
-67.24
-36.30
-10.29
12.53
34.06
55.38
76.18
94.88
109.46
118.75
123.41
126.30
132.05
145.81
171.48
210.12
258.99
311.83
360.19
395.85
413.06
410.06
389.08
354.92
312.86
266.85
218.85
169.43
119.07
69.17
22.15
-19.30
-53.39
-79.78
-99.21
-112.38
-118.91
-117.06
-104.61
-80.21
-44.72
-1.54
44.14
86.83
122.13
147.47
161.87
165.30
157.92
139.97
111.92
74.97
31.14
-17.18
-68.05
-120.75
-175.87
-234.52
-296.95
-361.41
-423.84
-478.69
-520.51
-545.62
-553.05
-544.35
-522.68
-491.55
-453.90
-411.76
-366.57
-319.68
-272.61
-227.04
-184.27
-144.78
-107.78
-71.28
-32.44
11.84
64.03
125.13
193.74
265.43
332.80
386.65
418.14
421.42
395.73
346.08
282.05
215.21
156.05
111.63
84.54
73.36
73.89
80.72
88.36
92.12
88.63
76.28
55.40
28.32
-1.08
-28.17
-48.60
-59.35
-59.32
-49.37
-31.82
-9.67
14.33
38.24
61.03
82.02
99.94
112.08
114.01
100.50
67.65
15.34
-51.25
-122.15
-185.25
-230.12
-251.30
-249.45
-229.94
-199.84
-165.00
-128.68
-92.04
-55.70
-21.04
9.87
35.46
56.14
74.80
95.70
122.29
155.24
191.70
226.13
252.30
265.20
262.23
243.23
209.89
165.15
112.80
57.23
3.07
-45.48
-85.43
-115.53
-136.12
-148.48
-154.04
-153.72
-147.81
-136.23
-118.96
-96.33
-69.36
-39.88
-10.43
16.06
36.90
50.29
56.13
56.10
53.56
52.54
56.57
67.47
84.72
105.61
126.24
143.01
153.93
159.25
161.07
162.28
165.35
171.54
180.80
192.24
204.82
217.82
231.04
244.77
259.70
276.55
295.58
316.11
336.13
352.63
362.22
362.28
351.75
331.47
303.69
271.20
236.48
201.27
166.56
132.82
100.10
68.04
35.81
2.46
-32.32
-67.56
-100.71
-128.16
-146.41
-153.37
-149.34
-137.10
-121.08
-105.95
-95.22
-90.24
-90.07
-92.28
-94.29
-94.60
-93.49
-92.69
-94.38
-100.09
-109.91
-122.77
-137.25
-152.60
-169.01
-187.09
-206.91
-227.21
-245.39
-258.25
-263.45
-260.48
-251.07
-238.88
-228.45
-224.24
-230.12
-249.08
-283.04
-332.00
-392.92
-458.98
-520.31
-566.26
-588.79
-585.28
-559.21
-518.52
-472.29
-427.59
-387.87
-353.54
-323.74
-298.02
-276.77
-260.56
-249.00
-240.13
-230.91
-218.33
-200.63
-177.72
-150.96
-122.20
-92.64
-62.25
-29.74
6.90
49.70
100.18
158.83
224.69
294.92
364.68
427.61
477.17
508.30
518.70
509.22
483.10
444.79
398.91
349.72
301.11
256.49
218.53
188.70
167.10
152.74
144.24
140.50
140.76
144.20
149.51
154.96
158.83
159.98
157.91
152.41
142.91
128.20
106.76
77.52
40.52
-2.94
-50.77
-100.81
-151.35
-201.18
-249.18
-293.86
-333.14
-364.53
-385.71
-395.20
-392.89
-380.20
-359.68
-334.37
-306.88
-278.77
-250.47
-221.60
-191.69
-160.71
-129.21
-97.94
-67.22
-36.51
-4.23
31.86
74.10
124.18
182.13
245.53
309.18
365.60
406.69
426.11
421.43
395.20
354.32
307.84
264.32
229.51
205.54
191.21
183.27
177.69
170.70
159.40
142.17
119.04
91.80
63.84
39.24
21.70
13.30
13.81
20.89
31.08
41.03
48.47
52.73
54.60
55.68
57.53
60.63
63.53
62.44
52.01
27.23
-14.06
-69.19
-130.55
-187.49
-229.73
-250.72
-249.28
-229.20
-196.97
-159.25
-121.05
-85.25
-53.15
-25.11
-0.87
20.59
41.41
64.54
92.78
127.30
166.38
205.25
237.12
255.40
256.01
238.71
206.99
166.52
122.96
80.32
40.23
2.35
-34.62
-71.68
-108.75
-144.26
-175.29
-198.16
-209.35
-206.67
-190.05
-161.80
-126.03
-87.44
-50.07
-16.44
12.70
37.88
60.34
81.40
101.99
122.42
142.08
159.49
172.57
179.43
179.40
173.74
165.60
159.19
158.28
164.81
178.21
195.83
214.24
230.99
245.77
260.44
277.69
299.16
323.92
348.33
367.36
376.73
374.62
362.05
342.00
317.49
290.41
261.14
229.39
195.31
160.03
125.34
92.82
62.89
34.50
5.60
-25.72
-59.94
-95.46
-128.75
-155.66
-172.95
-179.54
-176.78
-167.49
-154.64
-140.20
-124.88
-108.67
-91.60
-74.26
-57.65
-42.69
-29.87
-19.13
-10.25
-3.28
1.14
1.95
-1.94
-11.05
-24.91
-42.05
-60.50
-78.42
-94.76
-109.45
-123.09
-136.31
-149.20
-161.36
-172.36
-182.62
-193.73
-208.19
-228.56
-256.79
-293.93
-340.23
-395.18
-456.87
-521.23
-581.62
-629.65
-657.46
-660.45
-639.19
-599.34
-549.51
-498.22
-451.28
-410.87
-376.23
-345.33
-316.26
-287.83
-259.46
-230.70
-200.92
-169.41
-135.63
-99.22
-60.14
-18.29
26.87
76.50
132.06
194.17
261.29
328.89
390.09
437.54
465.96
473.94
464.11
441.73
412.57
381.02
349.46
318.65
288.67
259.51
231.33
204.21
178.17
153.32
130.24
110.18
94.87
86.06
85.01
91.89
105.38
122.53
139.01
149.69
149.70
135.57
106.26
63.59
11.77
-43.79
-98.14
-148.11
-192.83
-233.18
-270.46
-305.11
-335.97
-360.70
-376.88
-383.30
-380.57
-370.96
-357.42
-342.47
-327.43
-312.39
-296.63
-279.47
-260.73
-240.86
-220.58
-200.37
-180.11
-159.24
-137.14
-113.52
-88.67
-63.28
-37.93
-12.73
12.94
40.28
70.61
104.73
142.37
181.91
220.58
255.23
283.23
303.24
315.52
321.50
323.04
321.68
318.38
313.68
308.15
302.77
298.75
297.17
298.45
302.18
307.26
312.26
315.81
316.85
314.85
309.95
302.95
295.00
287.07
279.29
270.51
258.54
240.99
216.39
184.86
147.99
107.90
66.19
23.43
-20.44
-65.11
-109.05
-149.48
-183.26
-208.16
-223.79
-231.51
-233.50
-231.43
-225.63
-215.03
-198.10
-174.07
-143.89
-110.49
-78.09
-51.02
-32.33
-23.04
-22.09
-27.16
-35.88
-46.92
-60.46
-77.84
-100.70
-130.00
-165.35
-204.87
-245.52
-283.75
-316.03
-339.28
-351.09
-349.91
-335.27
-307.98
-270.21
-225.23
-176.77
-128.17
-81.72
-38.42
1.72
38.94
73.11
103.65
129.75
150.99
167.79
181.23
192.60
202.81
212.15
220.57
228.42
237.12
248.98
266.25
289.52
316.50
341.95
359.14
362.35
349.03
320.65
281.92
238.48
194.67
152.24
110.37
66.74
18.87
-34.68
-93.42
-154.51
-212.81
-261.60
-294.13
-305.45
-293.97
-261.82
-214.10
-157.36
-98.21
-42.40
5.46
42.09
65.84
77.19
78.92
75.51
71.86
71.78
76.88
86.50
98.41
109.98
119.30
125.68
129.52
131.61
132.29
130.69
124.56
110.73
86.16
49.26
0.84
-55.84
-115.81
-173.71
-225.01
-266.78
-297.82
-318.42
-330.06
-335.09
-336.21
-335.85
-335.28
-334.05
-330.14
-320.74
-303.55
-277.73
-244.18
-204.93
-162.27
-117.99
-73.15
-28.26
16.33
60.15
102.51
142.50
178.95
210.56
236.06
254.43
265.24
268.70
265.53
256.64
242.92
225.11
204.00
180.53
155.81
130.93
106.68
83.42
61.23
40.18
20.62
3.24
-11.10
-21.72
-28.35
-31.34
-31.58
-30.40
-29.24
-29.39
-31.50
-35.31
-39.66
-42.86
-43.26
-39.78
-32.13
-20.81
-6.82
8.52
23.72
37.19
47.69
54.75
59.24
63.47
70.74
84.31
106.13
136.14
172.28
211.36
250.22
286.51
318.85
346.26
367.67
381.58
386.46
381.46
366.95
344.61
316.83
286.02
253.80
221.05
188.03
154.80
121.55
88.38
55.19
21.31
-14.19
-51.92
-91.27
-129.74
-163.21
-187.01
-197.52
-193.51
-176.52
-150.14
-118.77
-86.50
-56.58
-31.51
-13.20
-2.92
-0.88
-5.77
-14.81
-24.27
-30.54
-31.12
-25.38
-14.82
-2.86
6.01
7.45
-1.44
-21.37
-50.74
-86.52
-125.55
-165.73
-206.52
-248.92
-294.90
-346.57
-404.89
-468.37
-532.28
-589.05
-630.13
-648.85
-642.90
-615.31
-573.19
-525.02
-477.77
-435.17
-397.81
-364.43
-333.34
-303.23
-273.18
-242.34
-209.67
-174.18
-135.24
-92.75
-46.97
1.76
53.59
109.61
171.66
241.24
317.84
397.37
471.97
531.60
567.23
574.12
553.53
511.86
457.77
398.67
338.59
278.34
217.43
156.32
97.73
46.10
5.98
-19.65
-30.25
-27.51
-14.42
5.59
29.34
53.96
76.78
95.38
107.87
113.37
112.40
106.74
98.85
90.88
83.79
76.89
67.99
53.93
31.41
-2.28
-48.55
-106.79
-173.87
-244.07
-309.82
-363.15
-397.59
-409.65
-399.50
-370.51
-328.05
-278.20
-226.47
-176.98
-132.00
-91.84
-55.20
-20.09
15.11
50.85
86.31
120.14
151.41
180.09
206.36
229.67
247.70
256.56
252.14
231.92
196.02
146.81
87.59
21.37
-49.14
-120.53
-187.61
-243.34
-280.48
-293.96
-282.72
-249.92
-201.38
-143.68
-82.77
-23.98
27.49
66.35
88.24
91.41
78.15
54.61
29.06
9.24
0.09
2.84
15.59
34.85
57.14
79.97
101.93
122.07
139.06
150.66
153.61
144.14
118.99
76.54
17.76
-53.34
-130.00
-203.91
-266.77
-312.04
-336.31
-339.73
-325.51
-298.61
-264.19
-226.37
-187.66
-148.97
-110.09
-70.03
-27.33
19.69
72.21
129.91
190.08
247.47
295.32
327.42
340.13
333.66
311.55
279.09
241.25
201.38
161.12
121.27
82.89
47.80
18.28
-3.80
-17.73
-24.27
-25.36
-23.49
-21.01
-19.52
-19.64
-21.02
-22.68
-23.55
-22.94
-20.72
-17.23
-12.87
-7.79
-1.73
5.94
16.04
29.46
47.05
69.62
97.74
131.58
170.48
212.86
256.34
298.36
336.90
370.90
400.16
424.67
443.98
456.92
462.05
458.46
446.49
427.75
404.45
378.41
350.26
319.61
285.82
249.02
210.53
172.52
137.02
104.93
75.69
47.49
18.04
-14.61
-51.26
-91.02
-131.06
-166.94
-193.53
-206.56
-204.12
-187.53
-160.95
-129.83
-99.06
-71.63
-48.59
-29.90
-15.58
-6.27
-2.91
-5.93
-14.52
-26.69
-39.83
-51.70
-60.98
-67.54
-72.26
-76.68
-82.67
-91.92
-105.74
-124.60
-148.24
-176.00
-207.36
-242.39
-282.09
-328.17
-382.25
-444.55
-512.42
-579.83
-638.16
-678.62
-695.33
-687.56
-660.09
-621.11
-578.93
-539.15
-503.56
-471.23
-440.72
-411.80
-385.74
-364.13
-347.19
-332.87
-317.33
-296.45
-267.51
-230.22
-186.67
-139.99
-92.98
-46.85
-0.96
46.55
97.72
154.00
216.06
283.70
355.59
428.55
496.83
552.44
586.71
593.06
569.53
519.81
452.03
376.18
301.09
232.84
174.67
128.09
93.99
72.86
64.30
66.26
75.02
85.99
95.10
99.90
99.86
96.02
89.73
81.47
70.34
54.33
31.51
1.31
-34.59
-72.40
-107.28
-135.02
-153.36
-162.42
-164.24
-161.51
-156.48
-150.23
-142.74
-133.45
-121.92
-108.23
-93.09
-77.62
-63.06
-50.66
-41.61
-37.08
-38.04
-44.82
-56.59
-70.87
-83.62
-89.98
-85.50
-67.45
-35.72
7.11
56.45
106.85
153.14
191.40
219.42
236.87
244.97
245.85
241.65
233.83
222.96
209.13
192.73
175.23
159.16
147.34
141.62
141.78
145.36
148.59
147.94
141.45
129.35
113.59
96.81
81.32
68.42
58.40
50.92
45.34
40.92
36.91
32.83
29.01
27.03
29.52
38.94
55.82
77.18
96.37
104.90
95.58
65.68
18.52
-37.42
-91.43
-134.08
-159.88
-167.97
-161.22
-144.36
-122.34
-99.31
-78.23
-60.64
-46.63
-34.81
-22.65
-7.37
12.94
38.43
67.14
95.62
119.92
136.72
143.94
140.82
127.63
105.29
75.26
39.62
1.03
-37.52
-73.38
-104.71
-130.66
-150.94
-165.20
-172.47
-171.37
-160.76
-140.67
-112.76
-80.13
-46.43
-14.88
12.51
35.00
52.70
66.07
75.69
82.40
87.60
93.31
101.66
113.90
129.53
146.08
159.78
167.12
166.35
158.28
145.92
133.08
122.92
116.85
114.61
114.99
116.78
119.48
123.24
128.70
136.62
147.88
163.26
183.15
206.93
232.46
256.13
273.70
281.65
278.39
264.67
243.04
216.58
187.79
158.04
127.67
96.65
64.88
32.36
-0.92
-34.77
-68.44
-100.19
-127.39
-147.18
-157.54
-158.07
-150.14
-136.30
-119.28
-101.22
-83.50
-67.07
-52.96
-42.38
-36.37
-35.19
-37.84
-42.23
-45.86
-46.93
-45.07
-41.66
-39.28
-40.49
-46.57
-56.66
-67.93
-76.54
-79.13
-74.13
-62.26
-46.16
-29.56
-16.11
-8.75
-9.35
-18.84
-37.20
-63.66
-96.74
-134.51
-175.17
-217.88
-263.26
-313.02
-368.47
-428.59
-488.56
-540.20
-574.25
-583.83
-567.29
-529.00
-477.56
-422.37
-370.41
-324.71
-284.79
-248.50
-213.62
-178.54
-142.00
-102.69
-59.53
-12.63
35.98
82.47
122.60
153.55
175.59
192.26
208.92
230.52
259.33
293.91
329.48
359.60
378.34
381.98
369.74
343.44
306.42
262.50
215.23
167.78
123.17
84.40
54.15
34.20
24.90
25.11
32.78
45.78
62.66
82.66
105.09
128.51
150.26
166.80
174.71
171.88
158.39
136.44
109.45
80.60
51.68
22.66
-7.78
-41.02
-77.23
-114.78
-150.58
-181.24
-204.46
-220.00
-229.82
-237.44
-247.01
-262.26
-285.68
-317.75
-356.41
-396.96
-432.75
-456.70
-463.31
-450.39
-419.66
-375.90
-325.13
-272.55
-221.43
-172.98
-127.00
-82.77
-39.48
3.60
47.11
91.49
136.64
181.73
225.25
265.39
300.54
329.52
351.62
366.25
372.71
370.20
358.07
336.29
305.60
267.55
224.36
178.70
133.69
92.69
59.12
35.78
24.07
23.45
31.47
44.48
58.90
72.11
83.01
91.71
98.89
105.09
110.24
113.51
113.34
107.77
94.85
73.18
42.57
4.43
-38.53
-83.05
-126.49
-167.53
-206.29
-243.72
-280.86
-318.06
-354.84
-390.00
-421.88
-448.74
-468.87
-480.78
-483.43
-476.45
-460.42
-436.86
-408.15
-377.14
-346.71
-319.28
-296.32
-278.06
-263.52
-250.86
-238.11
-223.86
-207.60
-189.69
-170.96
-152.16
-133.67
-115.32
-96.62
-77.04
-56.25
-34.30
-11.57
11.29
33.63
54.90
74.88
93.73
111.98
130.56
150.48
172.53
196.66
221.64
245.00
263.63
274.91
277.67
272.80
262.86
251.07
240.00
230.74
222.87
215.02
205.81
194.53
181.51
168.23
157.10
151.24
153.84
167.38
192.68
228.31
270.64
314.67
355.30
388.62
412.56
426.85
432.36
430.35
421.92
407.89
388.90
365.48
338.20
307.50
273.79
237.55
199.56
161.04
123.49
88.30
56.35
27.78
2.03
-21.87
-44.95
-68.06
-91.64
-115.75
-139.97
-163.55
-185.72
-206.11
-225.11
-243.78
-263.35
-284.36
-306.15
-326.82
-343.78
-354.81
-358.56
-354.79
-343.97
-326.78
-303.82
-275.69
-243.34
-208.02
-171.24
-134.22
-97.71
-62.05
-27.60
4.83
33.83
57.81
75.58
87.01
93.26
96.55
99.57
104.68
113.44
126.26
142.47
160.54
178.27
193.08
202.36
204.13
197.81
184.73
167.99
151.35
137.42
126.26
114.99
99.06
74.64
40.91
1.01
-38.85
-71.72
-92.42
-99.02
-92.79
-76.83
-54.63
-28.94
-1.56
26.30
53.63
79.50
103.13
124.09
142.34
157.97
170.85
180.40
185.71
185.81
180.21
169.20
153.94
136.20
117.99
101.08
86.59
74.83
65.33
57.12
49.04
39.83
28.14
12.40
-9.12
-37.80
-73.99
-116.54
-162.93
-209.85
-253.94
-292.17
-321.80
-340.08
-344.31
-332.50
-304.50
-262.79
-212.38
-159.79
-111.29
-71.56
-42.91
-25.54
-18.20
-18.74
-24.54
-32.51
-39.44
-42.54
-40.21
-32.75
-22.42
-12.83
-7.68
-9.46
-18.66
-33.88
-52.63
-72.42
-91.48
-108.89
-124.16
-136.76
-145.82
-150.44
-150.18
-145.53
-137.91
-129.18
-120.75
-112.62
-102.92
-88.17
-64.44
-29.05
18.02
73.62
132.11
187.03
232.94
266.77
288.04
298.33
300.21
296.37
288.92
279.28
268.06
255.07
239.41
219.79
195.12
165.17
131.09
95.36
61.15
31.33
7.59
-9.97
-22.67
-32.51
-41.27
-49.84
-58.04
-64.81
-68.73
-68.62
-63.95
-55.16
-43.67
-31.51
-20.59
-11.80
-4.37
3.93
15.67
32.10
51.96
71.45
85.62
90.62
85.48
72.61
56.71
42.77
34.50
33.67
40.59
54.98
76.34
103.71
135.09
167.50
197.81
223.93
245.65
264.27
281.35
297.23
310.43
318.20
317.88
308.22
289.81
264.53
234.45
201.23
166.09
130.41
96.14
65.60
40.70
22.22
9.53
1.07
-4.80
-9.30
-12.97
-16.12
-19.38
-24.11
-32.21
-45.40
-64.49
-88.81
-116.13
-143.29
-167.11
-185.25
-196.70
-201.88
-202.10
-198.89
-193.55
-186.92
-179.56
-172.18
-166.08
-163.35
-166.98
-180.54
-207.29
-248.75
-302.94
-363.72
-421.45
-465.69
-488.53
-487.28
-465.00
-428.79
-386.81
-345.58
-308.90
-278.07
-253.04
-233.02
-216.46
-200.64
-181.70
-155.79
-120.59
-76.59
-27.03
23.45
70.52
111.71
146.76
177.06
204.64
231.12
257.02
281.56
302.65
317.20
321.79
313.60
291.62
257.37
214.94
169.87
127.52
91.41
62.55
39.91
21.81
7.39
-2.73
-6.72
-2.75
9.95
30.43
56.08
83.47
109.19
130.52
145.71
153.89
154.71
148.09
134.00
112.48
83.79
48.55
7.79
-37.03
-83.95
-130.49
-173.77
-210.77
-238.87
-256.32
-262.70
-258.79
-246.31
-227.27
-203.56
-176.77
-148.45
-120.31
-94.33
-72.47
-56.06
-45.27
-38.93
-34.76
-30.05
-22.48
-10.92
4.28
21.46
38.23
52.49
63.14
70.47
75.70
80.04
83.67
85.22
82.16
71.95
53.51
28.27
0.05
-25.94
-44.61
-52.44
-48.28
-33.48
-11.61
12.23
32.35
43.70
43.30
31.11
10.25
-13.83
-34.81
-47.22
-47.62
-35.23
-11.70
19.48
53.91
87.20
115.77
137.36
151.09
156.84
154.64
143.99
123.67
91.96
47.38
-10.35
-79.30
-154.61
-228.78
-292.86
-338.69
-361.18
-359.81
-338.42
-303.55
-261.91
-218.18
-174.08
-128.84
-80.69
-28.47
27.43
84.87
140.55
190.75
232.10
262.05
279.19
283.31
275.46
257.84
233.39
205.30
176.31
148.13
121.11
94.54
67.18
38.14
7.53
-23.35
-52.27
-76.73
-94.66
-105.05
-108.32
-106.18
-101.22
-96.19
-93.35
-93.95
-98.07
-104.71
-111.92
-117.20
-117.84
-111.44
-96.49
-72.94
-42.42
-8.07
26.06
56.00
78.78
93.10
99.43
99.67
96.46
92.49
89.96
90.37
94.61
103.13
116.26
134.35
157.72
186.51
220.39
258.30
298.10
336.57
369.78
393.85
405.95
405.07
392.14
369.51
339.81
305.07
266.45
224.84
181.78
139.96
102.86
73.51
53.23
41.11
34.52
30.41
26.48
21.73
16.27
10.65
5.15
-0.47
-7.06
-15.88
-28.30
-45.46
-67.82
-94.71
-124.07
-152.65
-176.83
-193.54
-201.21
-200.05
-191.89
-179.28
-164.76
-150.46
-137.95
-128.81
-125.01
-129.01
-143.32
-169.97
-209.95
-262.77
-326.07
-395.21
-463.26
-521.73
-562.43
-579.78
-572.79
-545.45
-505.29
-460.69
-418.22
-381.36
-350.66
-325.15
-303.51
-284.54
-266.96
-249.06
-228.79
-204.31
-174.65
-140.00
-101.21
-59.43
-15.18
32.11
84.12
143.05
210.45
285.70
365.04
441.58
506.79
552.99
575.74
575.10
555.13
522.03
481.81
438.90
395.89
354.31
315.51
280.98
252.00
228.86
210.55
194.90
179.58
163.17
145.82
129.39
116.42
108.65
105.74
104.76
101.05
90.11
69.64
40.74
7.47
-25.06
-53.01
-75.39
-94.19
-113.13
-136.04
-165.70
-203.28
-248.31
-298.47
-349.44
-394.88
-427.53
-441.18
-432.98
-404.90
-363.42
-317.50
-275.44
-242.31
-218.87
-202.22
-187.79
-171.41
-150.74
-125.63
-97.58
-68.84
-41.56
-17.11
4.17
23.10
41.65
62.82
90.06
126.28
172.47
226.60
283.31
334.89
373.49
393.52
393.41
375.93
346.95
313.28
280.65
252.57
230.12
212.63
198.45
185.65
172.41
157.47
140.37
121.64
102.63
84.88
69.53
56.87
46.50
37.82
30.51
24.61
20.00
15.78
9.90
-0.51
-18.21
-44.96
-81.05
-125.72
-177.66
-235.40
-296.93
-359.11
-417.26
-465.67
-498.92
-513.57
-509.34
-489.03
-457.46
-419.75
-379.90
-340.18
-301.42
-263.70
-227.12
-192.11
-159.35
-129.31
-101.81
-75.86
-49.85
-22.22
7.87
40.13
73.27
105.57
135.48
162.03
184.85
203.82
218.79
229.59
236.21
239.12
239.12
236.83
231.99
223.16
208.19
185.51
155.59
121.65
88.96
62.83
46.14
37.77
32.88
25.11
9.52
-15.04
-45.23
-74.59
-95.84
-103.31
-94.35
-69.54
-31.98
13.74
62.66
110.20
152.70
187.79
214.39
232.47
242.52
244.98
239.68
225.64
201.25
164.97
116.35
57.03
-8.52
-73.18
-128.45
-166.69
-183.47
-179.15
-158.82
-130.49
-102.10
-78.93
-62.22
-49.68
-37.44
-22.34
-3.47
17.78
38.82
57.31
72.12
83.23
91.12
96.02
97.69
95.88
90.89
83.83
76.25
69.17
62.35
54.29
43.10
27.72
8.90
-10.88
-28.39
-41.11
-48.20
-50.54
-49.98
-48.18
-45.91
-43.10
-39.42
-35.03
-30.86
-28.25
-28.15
-30.53
-34.23
-37.55
-38.97
-37.98
-35.20
-32.16
-30.81
-33.04
-40.43
-53.90
-73.39
-97.38
-122.62
-144.36
-157.16
-156.30
-139.12
-105.83
-59.42
-4.63
53.55
111.43
167.41
221.90
276.24
331.17
385.47
435.62
476.60
503.69
514.20
508.46
489.41
461.31
428.09
392.37
355.36
317.48
279.02
240.40
202.03
164.13
126.89
90.84
57.23
27.87
4.50
-11.96
-21.94
-27.09
-29.71
-32.01
-35.59
-41.08
-48.07
-55.19
-60.44
-61.92
-58.73
-51.66
-43.27
-37.12
-36.43
-42.99
-56.66
-75.75
-97.82
-120.63
-142.46
-162.16
-178.89
-191.94
-200.72
-205.15
-205.85
-204.52
-203.85
-207.17
-217.77
-238.34
-270.54
-314.79
-369.87
-432.43
-496.70
-554.87
-598.57
-621.27
-620.41
-598.37
-561.52
-517.74
-473.77
-433.64
-398.63
-368.55
-342.96
-321.63
-304.11
-288.93
-273.49
-254.65
-229.97
-198.67
-161.60
-120.81
-78.27
-35.01
9.34
56.30
108.14
167.15
234.81
310.69
391.39
470.26
538.27
586.26
607.72
600.93
569.38
520.33
462.20
402.25
345.45
294.71
251.72
217.53
192.41
175.47
164.29
155.50
145.80
133.01
116.64
97.55
77.32
57.38
38.68
21.80
7.37
-3.64
-10.00
-10.71
-5.65
4.03
16.00
27.37
35.48
38.63
36.35
29.12
17.87
3.37
-14.19
-35.36
-61.33
-93.60
-133.32
-180.20
-231.61
-282.29
-325.17
-353.37
-362.60
-352.91
-328.79
-297.35
-265.57
-237.62
-213.88
-191.78
-167.93
-140.37
-109.45
-77.36
-46.76
-19.38
4.43
25.48
44.98
64.04
83.46
103.92
125.97
149.86
175.08
199.92
221.56
236.75
242.92
239.21
226.93
209.10
189.37
170.60
154.06
139.36
125.23
110.56
95.25
80.38
67.78
59.39
56.76
60.83
72.00
90.05
114.06
142.23
171.87
199.81
222.98
238.93
246.11
243.83
232.05
211.16
182.10
146.42
106.27
64.07
21.75
-20.05
-62.30
-107.04
-156.14
-209.83
-266.00
-320.60
-368.98
-407.52
-434.45
-449.78
-454.36
-448.98
-434.09
-410.18
-378.55
-341.66
-302.83
-265.34
-231.60
-202.58
-178.02
-156.88
-137.99
-120.23
-102.54
-83.93
-63.76
-42.08
-20.05
0.13
15.78
24.76
26.35
21.54
12.60
2.11
-7.96
-16.81
-24.68
-32.36
-40.74
-50.55
-62.19
-75.52
-89.55
-102.21
-110.49
-111.16
-101.82
-81.80
-52.54
-17.26
20.07
55.82
87.49
114.02
135.44
152.45
165.90
176.52
184.85
191.36
196.37
200.13
202.66
203.89
203.71
202.38
200.74
200.37
203.23
211.02
224.43
242.53
262.81
281.67
295.44
301.33
298.21
286.83
269.52
249.57
230.26
214.00
201.69
192.55
184.57
175.34
163.07
147.31
129.13
110.66
94.20
81.33
72.51
67.08
63.74
61.05
57.77
53.09
46.63
38.50
29.14
19.17
9.04
-1.25
-12.30
-24.98
-39.95
-57.22
-76.05
-95.32
-114.10
-132.01
-149.14
-165.65
-181.21
-194.89
-205.46
-211.78
-213.21
-209.77
-202.05
-191.24
-179.11
-167.94
-160.06
-157.09
-159.06
-163.80
-167.27
-164.47
-151.03
-124.53
-85.24
-35.98
18.66
73.55
124.23
167.85
203.50
231.99
255.06
274.49
291.23
305.20
315.45
320.72
319.88
312.20
297.39
275.69
248.05
216.30
183.15
151.69
124.50
102.74
85.74
71.34
56.87
40.29
21.04
0.08
-20.66
-39.22
-54.43
-66.34
-76.14
-85.65
-96.71
-110.58
-127.66
-147.58
-169.62
-193.23
-218.36
-245.28
-274.05
-303.84
-332.73
-357.99
-376.97
-387.92
-390.42
-385.13
-373.15
-355.49
-333.00
-306.79
-278.60
-250.74
-225.26
-203.08
-183.37
-163.97
-142.61
-118.07
-90.96
-63.32
-37.72
-16.09
0.84
13.53
23.00
30.23
35.85
40.19
43.50
46.21
48.80
51.58
54.32
56.14
55.65
51.68
44.02
34.06
24.76
19.79
22.19
33.13
51.39
73.80
96.52
116.38
131.80
142.72
149.98
154.39
156.24
155.34
151.44
144.74
136.06
126.58
117.36
109.01
101.58
94.77
88.35
82.33
76.95
72.40
68.57
64.96
60.85
55.66
49.21
41.82
34.09
26.63
19.76
13.34
6.87
-0.49
-9.56
-20.83
-33.98
-47.61
-59.30
-66.17
-65.78
-57.06
-40.73
-19.15
4.46
27.08
46.55
61.91
73.20
81.00
86.03
88.93
90.28
90.61
90.46
90.13
89.47
87.74
83.70
76.01
63.97
47.97
29.70
11.57
-4.19
-16.54
-26.12
-35.05
-46.02
-61.21
-81.51
-106.22
-133.50
-161.04
-186.88
-209.83
-229.62
-246.60
-261.42
-274.49
-285.67
-293.98
-297.61
-294.19
-281.46
-258.02
-224.11
-181.91
-135.15
-88.05
-43.90
-3.94
32.85
69.11
107.53
149.48
194.14
238.82
279.93
314.18
339.44
354.88
360.64
357.39
346.16
328.31
305.55
279.64
251.90
222.67
191.22
156.07
115.89
70.36
20.71
-30.41
-79.66
-123.99
-161.46
-191.69
-215.59
-234.76
-250.71
-264.26
-275.31
-282.81
-284.99
-279.53
-263.81
-235.36
-192.60
-135.63
-66.65
10.10
89.21
165.27
233.79
291.69
337.27
370.02
390.43
400.02
401.28
397.34
391.28
385.32
380.19
375.05
367.91
356.41
338.54
313.29
280.85
242.54
200.45
156.78
113.29
70.87
29.47
-11.59
-53.31
-96.79
-143.03
-192.76
-245.77
-300.32
-352.80
-398.29
-431.96
-450.67
-454.04
-444.24
-424.76
-398.83
-368.45
-334.43
-297.27
-257.99
-218.33
-180.24
-144.95
-112.57
-82.31
-53.24
-24.97
2.05
26.69
47.60
63.74
74.78
81.26
84.58
86.77
90.12
96.59
107.25
122.06
140.13
160.39
182.30
205.97
231.61
258.56
284.45
305.38
316.99
316.19
302.44
278.00
246.90
213.20
179.56
146.61
113.37
78.17
39.61
-2.71
-47.85
-93.34
-135.50
-169.99
-192.90
-201.95
-197.41
-182.19
-161.17
-139.75
-122.38
-111.55
-107.64
-109.60
-115.94
-125.70
-138.89
-156.29
-178.90
-207.31
-241.21
-279.11
-318.33
-354.99
-384.36
-401.54
-402.53
-385.48
-351.49
-304.65
-251.12
-197.44
-148.74
-107.65
-74.15
-46.33
-21.49
2.86
28.58
56.97
89.13
126.19
169.28
218.90
274.09
331.92
387.55
435.31
470.19
489.27
492.41
481.87
461.15
433.57
401.19
364.73
324.09
279.36
231.54
182.86
136.31
94.86
60.49
33.50
12.39
-5.59
-23.41
-43.12
-65.09
-88.00
-109.47
-127.05
-139.04
-144.77
-144.48
-139.20
-130.69
-121.60
-115.37
-115.58
-124.80
-143.47
-169.48
-199.03
-228.32
-255.25
-280.30
-305.87
-334.66
-367.73
-403.51
-437.95
-465.82
-482.38
-484.82
-472.78
-448.17
-414.26
-374.78
-333.00
-291.32
-251.18
-213.33
-178.11
-145.48
-115.05
-85.75
-55.86
-23.30
13.92
57.38
108.16
166.88
233.36
305.93
380.65
451.20
509.84
549.45
565.65
558.15
530.38
487.98
436.90
382.10
327.47
276.32
231.70
196.19
171.08
155.70
147.50
143.01
139.23
134.55
128.95
123.43
119.01
116.01
113.84
111.33
107.22
100.65
91.35
79.67
66.47
52.89
40.12
29.18
20.54
14.03
8.88
4.10
-1.06
-6.81
-12.81
-18.66
-24.38
-30.65
-38.63
-49.34
-63.04
-78.97
-95.66
-111.62
-125.95
-138.67
-150.50
-162.30
-174.59
-187.28
-199.78
-211.24
-220.78
-227.46
-230.19
-227.75
-219.35
-205.27
-187.61
-170.20
-157.70
-154.03
-160.78
-176.59
-197.55
-218.63
-235.15
-243.84
-243.13
-232.98
-214.64
-190.71
-165.21
-143.42
-130.89
-131.99
-148.45
-178.50
-217.20
-257.75
-293.24
-318.32
-330.19
-328.76
-316.14
-295.75
-271.32
-246.15
-222.64
-202.20
-185.40
-172.15
-161.94
-154.03
-147.55
-141.62
-135.45
-128.56
-120.81
-112.43
-103.89
-95.62
-87.85
-80.54
-73.43
-66.25
-58.87
-51.49
-44.46
-38.25
-33.19
-29.30
-26.29
-23.68
-20.94
-17.70
-13.82
-9.44
-4.75
0.11
5.23
10.97
17.89
26.62
37.63
51.18
67.31
85.85
106.59
129.39
154.23
181.31
211.16
244.64
282.73
326.06
374.28
425.65
477.16
525.02
565.51
595.54
612.99
616.57
605.70
580.44
541.63
491.14
431.97
368.03
303.54
242.39
187.68
141.45
104.71
77.54
59.14
48.09
42.66
41.19
42.50
45.95
51.31
58.27
66.11
73.55
79.12
81.80
81.53
79.35
76.89
75.47
75.39
75.68
74.55
70.12
61.32
48.38
32.93
17.67
5.55
-1.03
-1.24
3.44
9.24
10.93
3.47
-16.23
-48.11
-88.82
-132.62
-172.90
-203.81
-221.54
-224.92
-215.46
-196.76
-173.43
-149.86
-129.10
-112.18
-97.95
-83.93
-67.51
-47.10
-22.13
7.11
39.95
75.48
112.38
148.52
180.45
203.63
213.57
207.88
187.49
156.65
121.22
86.31
54.67
25.84
-2.67
-33.42
-66.31
-98.40
-125.20
-143.08
-150.88
-149.39
-141.29
-129.63
-117.24
-103.86
-87.27
-64.97
-36.39
-3.44
31.97
66.95
98.56
122.88
140.28
153.90
168.11
185.65
206.91
233.05
262.93
293.14
315.73
327.07
326.98
318.32
304.17
287.70
275.92
274.60
286.22
305.08
327.36
349.89
371.03
389.29
380.82
334.54
255.70
188.70
144.22
119.29
98.49
74.89
46.00
12.99
-17.58
-40.62
-55.27
-68.97
-85.69
-106.32
-128.44
-149.86
-169.08
-182.93
-190.18
-192.31
-195.92
-204.04
-216.91
-232.38
-248.69
-264.75
-278.30
-288.23
-294.98
-302.35
-312.27
-325.69
-342.60
-363.15
-386.71
-410.20
-429.13
-438.81
-436.88
-422.07
-394.96
-357.39
-312.02
-261.31
-206.94
-150.75
-95.52
-45.50
-5.15
21.64
32.19
25.10
0.09
-41.93
-98.51
-164.84
-233.65
-295.96
-343.05
-368.87
-371.92
-355.42
-325.86
-290.55
-255.20
-222.79
-193.85
-167.71
-143.70
-121.55
-101.02
-81.16
-59.93
-34.50
-2.28
37.92
85.07
135.97
186.09
231.13
268.46
297.82
321.02
340.78
359.35
377.64
394.96
409.62
419.58
423.12
419.14
407.27
387.81
361.65
330.06
294.29
255.20
212.94
167.13
117.45
64.64
11.12
-38.91
-80.26
-108.36
-120.70
-117.75
-102.64
-79.78
-53.14
-24.96
4.18
34.43
65.20
94.48
119.07
135.79
142.63
139.32
126.91
106.82
80.07
46.93
7.30
-38.78
-90.86
-148.40
-211.05
-278.39
-348.99
-419.23
-482.91
-532.24
-560.22
-563.33
-542.97
-505.01
-457.42
-407.49
-359.82
-316.10
-276.15
-239.51
-206.14
-176.25
-149.57
-124.73
-99.46
-71.32
-38.44
0.28
45.20
96.22
152.64
212.80
273.54
330.30
377.71
410.75
425.89
421.68
398.93
360.26
309.71
252.17
192.96
137.04
88.11
47.73
15.02
-12.57
-37.92
-62.73
-86.76
-108.10
-124.17
-133.00
-133.90
-127.59
-115.58
-99.63
-81.33
-62.05
-43.05
-25.39
-9.71
4.17
17.36
31.73
49.11
70.38
94.63
118.77
137.92
146.62
140.28
116.66
76.72
24.59
-33.05
-88.30
-133.61
-163.38
-175.31
-170.90
-154.91
-133.80
-113.66
-98.53
-89.79
-86.67
-87.25
-89.26
-90.25
-87.20
-76.49
-54.57
-19.42
28.04
83.44
139.75
189.10
224.83
242.96
242.61
225.68
196.09
159.01
119.96
84.04
55.07
34.90
23.17
17.69
15.29
12.89
8.53
1.76
-6.45
-14.26
-19.79
-21.70
-19.71
-14.50
-7.40
0.12
6.90
12.36
16.50
19.77
22.84
26.32
30.56
35.34
39.74
42.27
41.37
36.17
27.08
15.89
5.06
-3.32
-8.46
-11.08
-12.87
-15.27
-18.46
-21.01
-20.40
-13.98
-0.15
21.00
47.70
77.07
106.12
132.72
156.35
178.28
201.11
227.73
259.85
296.95
335.92
371.77
399.20
414.21
414.91
401.81
376.97
342.97
302.48
258.07
212.94
171.18
137.07
113.43
100.77
96.86
97.58
98.46
95.92
88.33
76.20
61.55
46.59
33.46
23.70
17.74
15.05
13.75
11.90
8.52
3.84
-2.58
-10.69
-20.22
-30.86
-41.65
-52.77
-64.07
-74.60
-83.21
-91.91
-102.37
-115.17
-129.86
-144.31
-159.61
-177.38
-198.40
-222.78
-254.20
-294.24
-341.60
-392.82
-442.32
-490.78
-541.24
-596.36
-657.06
-726.41
-801.36
-872.53
-927.60
-954.03
-951.87
-928.55
-893.94
-819.49
-694.85
-530.63
-354.36
-214.88
-112.49
-39.74
10.48
48.93
81.92
109.22
131.74
152.49
175.57
207.16
245.63
287.57
330.86
374.67
415.50
452.23
486.82
523.35
567.98
619.75
673.57
721.81
755.25
763.33
740.27
687.64
613.95
533.01
455.53
388.53
335.01
294.01
261.25
232.34
204.23
175.33
145.44
113.14
77.30
38.26
-1.83
-39.52
-70.72
-92.25
-103.23
-105.43
-103.24
-101.65
-104.43
-113.26
-127.84
-146.85
-169.00
-193.68
-221.07
-251.77
-286.26
-324.30
-364.48
-404.00
-438.80
-464.30
-476.51
-473.21
-454.75
-424.01
-385.56
-344.40
-304.65
-268.89
-238.13
-212.14
-190.09
-170.79
-152.82
-134.51
-114.09
-90.21
-62.50
-32.06
-1.23
27.20
51.25
71.14
89.80
112.20
143.48
186.69
241.11
302.23
363.21
417.21
459.24
486.93
499.83
498.36
483.13
455.10
416.29
370.18
321.23
273.62
229.89
190.45
154.18
119.78
86.92
56.58
30.45
9.95
-4.55
-13.90
-19.80
-24.22
-28.91
-35.20
-43.92
-55.40
-69.48
-85.60
-103.14
-121.66
-141.26
-162.62
-186.75
-214.38
-245.37
-278.18
-309.85
-336.47
-354.14
-360.09
-353.55
-336.14
-311.37
-283.68
-257.06
-234.07
-215.40
-200.15
-186.49
-172.50
-156.73
-138.42
-117.51
-94.44
-70.09
-45.64
-22.54
-2.27
14.03
25.99
34.13
39.77
44.48
49.42
54.86
60.16
64.11
65.58
64.13
60.22
54.96
49.65
45.21
41.85
39.14
36.12
31.66
24.80
15.34
3.98
-7.88
-17.62
-21.90
-17.91
-4.43
17.66
45.51
75.55
104.27
128.80
147.85
161.57
170.72
176.06
178.10
177.09
173.78
168.79
161.58
151.90
140.17
126.84
112.47
97.80
83.71
72.64
66.22
62.11
58.05
53.15
46.47
37.65
27.23
16.64
11.11
14.79
24.09
35.93
49.71
64.02
77.29
88.43
97.40
110.65
134.17
163.25
195.30
232.15
273.92
319.23
365.90
411.80
462.20
520.91
577.32
623.65
658.95
682.06
692.65
691.99
639.77
516.21
390.30
292.80
210.19
137.48
70.56
7.10
-53.34
-110.04
-155.34
-184.42
-208.12
-234.68
-265.11
-300.20
-340.24
-384.72
-432.00
-473.56
-500.81
-515.63
-518.49
-507.26
-483.89
-453.60
-422.55
-395.28
-369.82
-342.11
-313.60
-284.61
-253.57
-220.71
-187.30
-154.68
-123.81
-93.67
-63.49
-35.75
-11.89
8.59
26.30
41.70
54.95
65.89
74.84
82.12
87.08
89.67
90.65
90.65
89.96
88.35
84.77
77.33
63.56
41.10
8.61
-33.25
-81.40
-130.81
-175.75
-211.49
-235.75
-249.14
-254.51
-255.31
-253.81
-249.95
-241.53
-225.44
-199.41
-163.29
-119.31
-71.06
-22.08
25.24
69.88
111.44
149.13
181.22
205.35
219.47
223.00
217.42
206.02
192.73
180.77
171.45
163.87
155.47
143.21
124.96
100.42
71.16
40.00
9.91
-16.90
-39.35
-57.26
-70.78
-79.97
-84.83
-85.50
-82.63
-77.49
-71.89
-67.70
-66.41
-68.68
-74.14
-81.37
-88.19
-92.08
-90.76
-82.74
-67.59
-46.05
-19.77
9.26
39.31
69.31
99.03
128.87
159.37
190.62
221.88
251.62
277.98
299.37
314.97
324.70
328.93
328.04
322.11
310.78
294.03
272.95
248.97
223.40
197.29
171.07
144.60
117.45
89.00
59.06
28.23
-3.03
-34.64
-66.48
-98.01
-128.01
-154.53
-176.14
-191.65
-199.56
-200.20
-195.56
-187.70
-178.08
-167.21
-155.16
-144.21
-136.70
-131.89
-130.56
-135.00
-146.01
-162.79
-183.24
-204.49
-227.49
-251.50
-267.68
-270.30
-259.07
-235.41
-202.85
-166.74
-133.27
-114.51
-118.34
-137.29
-166.05
-204.71
-252.68
-309.59
-375.17
-448.36
-534.30
-631.71
-719.81
-783.04
-817.54
-824.28
-809.44
-782.19
-697.99
-539.44
-389.50
-276.50
-180.27
-94.83
-17.47
52.91
117.54
178.70
231.06
272.62
317.78
374.51
440.80
513.88
589.95
664.08
730.50
776.84
794.43
789.96
768.90
732.75
685.29
631.10
574.45
518.47
460.91
399.95
341.04
286.47
234.33
183.69
135.25
91.38
55.58
29.25
13.07
9.42
17.21
32.13
50.21
68.60
85.79
101.08
113.22
121.04
124.64
123.82
117.99
106.98
90.78
69.38
42.78
10.94
-25.93
-67.16
-111.40
-156.63
-200.25
-239.69
-273.11
-300.11
-322.07
-341.91
-363.16
-388.75
-419.94
-455.75
-493.07
-527.23
-553.04
-565.88
-562.65
-542.61
-507.59
-461.63
-410.03
-357.98
-309.25
-265.52
-226.42
-190.34
-155.50
-120.82
-86.17
-52.08
-19.16
12.56
43.89
76.40
112.20
153.72
203.19
261.84
328.62
399.14
465.69
518.66
549.42
553.25
530.89
487.97
432.43
371.42
309.05
246.03
181.08
112.98
42.25
-28.45
-94.96
-152.85
-198.55
-229.89
-246.17
-247.89
-236.48
-214.10
-183.71
-149.02
-114.04
-82.49
-56.88
-37.91
-24.55
-14.71
-6.19
2.40
11.39
20.30
28.34
35.03
40.61
46.02
52.86
62.72
76.30
92.51
107.82
116.27
110.50
84.00
33.95
-36.43
-117.52
-195.47
-256.50
-291.50
-298.89
-284.25
-257.19
-226.91
-198.82
-173.64
-148.80
-121.01
-88.01
-49.04
-4.21
45.99
100.33
156.00
208.08
250.20
276.42
283.16
270.50
241.76
201.87
155.40
105.40
53.51
0.96
-50.35
-97.48
-136.98
-165.89
-182.65
-187.23
-180.71
-164.46
-139.52
-106.49
-66.02
-19.57
29.98
78.43
120.91
153.14
172.56
179.15
175.47
165.95
155.74
149.22
148.90
154.89
165.27
177.12
187.81
195.96
201.70
206.31
211.40
218.23
227.49
239.32
253.54
269.72
287.28
305.57
324.14
342.78
361.37
379.43
395.71
408.22
414.71
413.71
405.36
391.06
372.62
351.63
328.76
303.97
276.97
247.69
216.72
185.27
154.36
124.49
95.65
67.58
39.92
12.45
-15.26
-43.39
-71.58
-99.84
-128.57
-157.84
-187.01
-214.59
-238.56
-258.00
-272.50
-281.03
-284.25
-284.27
-283.00
-281.86
-281.88
-283.99
-291.10
-304.94
-322.35
-340.00
-355.21
-364.80
-366.28
-358.89
-343.94
-327.76
-316.65
-311.54
-315.31
-332.82
-366.23
-413.58
-468.38
-520.79
-564.37
-593.74
-600.75
-585.41
-555.43
-519.16
-483.04
-450.66
-397.83
-314.40
-238.51
-183.29
-138.93
-100.68
-64.02
-25.37
17.27
64.09
109.93
150.93
191.73
235.51
282.77
335.32
395.39
464.03
539.40
612.45
671.82
711.05
724.04
707.11
663.32
600.76
529.07
456.02
384.00
313.42
247.67
189.56
140.83
102.98
75.89
57.18
43.06
28.92
12.02
-6.62
-25.15
-42.41
-57.92
-72.33
-87.15
-103.95
-123.92
-147.15
-172.47
-199.44
-229.25
-264.29
-306.67
-356.30
-409.31
-458.42
-495.13
-512.78
-509.12
-487.00
-452.77
-413.60
-375.06
-340.06
-309.35
-282.74
-260.09
-241.58
-227.29
-216.61
-208.09
-199.86
-190.20
-178.16
-163.74
-147.55
-130.33
-112.41
-93.44
-72.50
-48.41
-20.27
12.21
48.67
88.31
130.41
174.84
222.18
273.36
328.62
386.66
444.12
496.09
537.25
563.37
572.26
564.06
540.67
504.83
459.46
407.26
350.86
292.92
236.14
182.91
134.94
92.90
56.45
24.72
-3.08
-27.15
-46.77
-60.68
-67.65
-67.15
-59.66
-46.53
-29.63
-10.78
8.48
27.04
44.25
59.97
74.56
88.71
103.03
117.43
130.62
140.06
142.28
133.61
110.88
72.34
18.37
-47.79
-119.96
-189.68
-247.84
-286.90
-302.83
-295.94
-270.28
-231.89
-187.04
-141.02
-97.79
-60.25
-30.32
-8.40
7.17
20.29
35.95
58.07
87.42
120.68
151.37
172.47
179.26
171.20
151.80
126.79
101.53
78.96
59.11
39.96
19.07
-4.86
-31.43
-58.77
-84.34
-105.73
-121.15
-129.53
-130.48
-124.19
-111.45
-93.72
-73.08
-52.07
-33.26
-18.77
-9.89
-6.74
-8.19
-11.99
-15.21
-14.92
-9.09
2.66
18.76
36.03
50.66
59.41
60.59
54.27
41.73
24.58
3.95
-19.68
-46.13
-74.88
-104.56
-132.92
-157.08
-174.10
-181.46
-177.59
-162.12
-136.10
-101.76
-62.09
-20.12
21.74
61.94
99.72
134.69
166.48
194.62
218.79
238.91
255.23
268.02
277.33
282.73
283.44
278.68
268.12
252.21
232.25
210.04
187.36
165.41
144.42
123.64
101.69
77.33
50.26
21.58
-6.21
-29.86
-46.56
-54.98
-56.01
-52.70
-49.30
-49.77
-56.24
-68.28
-83.02
-96.33
-104.40
-105.14
-98.73
-87.27
-73.57
-59.80
-46.55
-32.70
-16.09
5.19
31.77
62.35
93.77
121.63
141.26
148.49
140.12
114.50
72.14
16.37
-46.68
-109.10
-163.27
-204.14
-230.55
-244.93
-251.48
-253.84
-253.61
-250.34
-242.85
-230.63
-214.62
-196.67
-178.56
-160.92
-143.17
-124.05
-102.57
-78.54
-52.53
-25.70
0.64
25.24
46.92
64.44
76.47
81.66
78.98
68.22
50.50
28.56
6.40
-11.71
-22.59
-25.18
-20.78
-12.06
-1.90
7.85
16.97
26.47
38.07
53.24
72.67
96.19
122.97
151.48
179.62
204.95
225.15
238.56
244.19
241.36
229.37
207.69
175.86
134.04
83.50
26.76
-32.15
-88.98
-140.47
-185.01
-221.48
-249.49
-268.59
-277.97
-276.84
-263.46
-237.02
-198.69
-151.38
-97.27
-38.99
20.23
76.48
124.85
163.75
193.65
216.23
233.77
250.80
269.84
290.04
307.58
316.39
315.98
309.47
301.41
296.45
301.44
320.63
354.06
397.41
441.58
481.74
514.90
538.71
528.35
470.31
368.91
246.67
146.63
74.40
24.92
-8.73
-35.01
-57.61
-74.79
-84.72
-87.60
-86.45
-87.98
-93.76
-103.11
-114.94
-127.87
-138.28
-143.51
-143.08
-139.13
-136.94
-138.11
-142.62
-150.00
-159.34
-168.07
-174.07
-176.64
-176.97
-178.53
-182.61
-189.38
-198.50
-209.20
-220.29
-231.31
-242.80
-255.46
-269.46
-281.91
-288.48
-285.85
-273.79
-255.82
-238.43
-228.62
-231.27
-248.21
-278.21
-319.06
-368.70
-424.74
-482.81
-535.54
-573.44
-588.01
-575.36
-538.25
-485.21
-427.09
-373.07
-327.79
-291.18
-260.25
-231.60
-203.12
-174.38
-145.83
-117.69
-89.42
-59.79
-27.30
9.22
50.29
96.18
147.36
204.68
268.81
338.94
411.61
480.39
537.07
574.05
586.85
575.45
543.79
497.89
443.59
385.28
325.86
267.60
212.99
164.82
125.43
95.77
74.95
