1649888624.00
64.000000
-0.00
-0.00
-0.00
-0.00
-0.00
-0.00
-0.00
-0.00
-0.00
-0.00
0.00
0.01
0.01
-0.00
-0.03
-0.05
-0.05
0.00
0.13
0.36
0.66
1.01
1.37
1.72
2.06
2.40
2.79
3.24
3.80
4.42
5.06
5.66
6.20
6.68
7.15
7.68
8.31
9.14
10.09
11.04
11.88
12.56
13.14
13.76
14.65
15.96
17.91
20.32
22.90
25.38
27.58
29.57
31.68
34.32
37.81
42.54
48.15
54.10
59.83
64.97
69.58
74.14
79.34
85.71
93.76
103.00
112.62
121.73
129.77
136.75
143.30
150.75
157.77
166.64
177.95
191.79
206.97
220.57
228.25
225.36
208.53
176.87
132.76
80.05
23.07
-34.94
-92.44
-149.16
-205.23
-260.37
-313.74
-363.87
-409.83
-450.91
-486.50
-515.74
-537.23
-549.22
-549.96
-538.37
-514.21
-478.67
-433.88
-382.45
-327.02
-269.84
-212.63
-156.66
-102.95
-52.37
-5.90
35.58
71.43
101.35
125.50
144.38
158.69
169.15
176.37
180.75
182.57
182.07
179.51
175.23
169.65
163.18
156.15
148.81
141.30
133.69
126.02
118.33
110.69
103.16
95.80
88.68
81.83
75.25
68.95
62.95
57.25
51.86
46.78
42.03
37.59
33.45
29.61
26.07
22.81
19.83
17.11
14.67
12.48
10.54
8.83
7.35
6.07
4.97
4.05
3.27
2.62
2.09
1.65
1.30
1.01
0.79
0.60
0.47
0.38
0.31
0.27
0.22
0.15
0.06
-0.05
-0.15
-0.22
-0.23
-0.20
-0.14
-0.10
-0.10
-0.14
-0.22
-0.28
-0.29
-0.22
-0.09
0.05
0.12
0.06
-0.15
-0.45
-0.73
-0.88
-0.82
-0.57
-0.26
-0.07
-0.17
-0.59
-1.23
-1.84
-2.16
-2.02
-1.46
-0.76
-0.31
-0.45
-1.27
-2.53
-3.74
-4.36
-4.06
-2.94
-1.52
-0.57
-0.70
-2.06
-4.23
-6.33
-7.46
-7.11
-5.46
-3.19
-1.38
-0.81
-1.86
-4.43
-8.03
-11.84
-14.66
-14.95
-11.26
-2.99
8.97
22.21
33.56
40.38
41.93
39.25
34.57
30.04
26.23
22.32
16.67
8.05
-3.31
-15.74
-26.61
-33.15
-33.37
-26.78
-14.65
0.10
13.80
23.38
27.26
25.97
21.35
15.58
10.19
5.83
2.45
-0.07
-1.81
-2.82
-3.47
-4.66
-7.24
-11.52
-16.95
-22.43
-26.91
-29.70
-31.00
-31.18
-30.60
-29.56
-28.13
-26.41
-24.42
-21.92
-18.24
-12.65
-4.69
5.20
15.70
24.99
31.29
33.73
32.52
29.02
24.87
21.41
18.85
16.40
12.75
7.02
-0.56
-8.89
-16.37
-21.87
-24.67
-25.02
-23.84
-21.93
-19.60
-16.62
-12.80
-8.72
-5.78
-5.57
-9.01
-15.61
-23.45
-29.94
-32.83
-31.04
-24.87
-15.78
-5.84
2.94
9.21
12.85
14.80
16.48
18.89
22.07
24.97
26.23
25.11
22.04
18.62
16.60
16.81
18.68
20.62
21.12
19.89
18.03
17.33
19.13
23.18
27.63
29.98
28.52
23.31
16.36
10.66
8.54
10.61
15.40
20.24
22.62
21.10
15.71
7.65
-1.47
-10.51
-18.90
-26.86
-35.12
-44.36
-54.74
-65.45
-74.76
-80.61
-81.47
-77.08
-68.81
-58.80
-49.13
-41.18
-35.41
-31.70
-29.78
-29.13
-28.73
-27.03
-22.44
-14.21
-2.94
9.40
20.38
28.35
32.99
35.12
35.89
35.99
35.45
33.73
30.43
25.44
18.87
10.84
1.54
-8.40
-17.97
-25.82
-30.87
-32.82
-32.16
-29.96
-27.23
-24.51
-21.83
-18.99
-15.81
-12.22
-7.95
-2.53
4.79
14.40
26.16
38.85
50.57
59.49
64.35
65.04
62.37
57.65
52.32
47.60
44.51
43.78
45.56
49.20
53.27
55.98
55.89
52.57
46.44
38.12
27.71
14.39
-2.79
-23.74
-46.68
-68.28
-85.15
-95.23
-98.38
-95.84
-89.14
-79.35
-67.11
-53.44
-39.87
-28.33
-20.23
-15.55
-12.88
-10.21
-5.99
0.04
7.06
13.98
19.98
24.87
28.76
31.49
32.50
31.17
27.19
21.07
14.30
8.87
6.72
9.23
16.54
27.74
40.98
54.12
65.29
73.14
76.77
75.53
69.01
57.20
40.80
21.32
0.92
-18.10
-33.79
-44.94
-51.14
-52.62
-50.17
-44.85
-37.87
-30.34
-23.03
-16.21
-9.83
-3.74
2.15
7.72
12.89
17.81
22.82
28.22
34.02
39.92
45.58
50.86
55.99
61.39
67.19
72.99
77.66
79.85
78.31
72.35
61.97
47.75
30.72
12.01
-7.25
-26.23
-44.30
-61.09
-76.30
-89.69
-100.98
-109.76
-115.59
-118.03
-116.65
-111.21
-101.77
-88.76
-72.86
-54.97
-35.84
-16.07
3.89
23.41
41.55
57.21
69.35
77.38
81.12
80.77
76.64
69.13
59.00
47.62
37.01
29.34
26.12
27.31
31.10
34.48
34.37
28.87
17.93
3.17
-13.03
-28.62
-42.48
-54.41
-64.65
-73.23
-79.50
-82.43
-81.10
-75.30
-65.70
-53.73
-41.06
-29.04
-18.27
-8.61
0.52
9.85
19.91
30.72
41.92
52.70
62.16
69.44
74.08
75.96
75.19
71.93
66.44
59.27
51.51
44.73
40.43
39.20
40.09
40.72
38.12
29.89
15.32
-4.46
-26.87
-49.07
-68.64
-84.12
-94.96
-101.32
-103.74
-103.02
-100.08
-95.70
-90.35
-84.15
-77.01
-68.88
-59.96
-50.70
-41.65
-33.35
-26.12
-20.04
-14.82
-9.88
-4.45
2.30
10.88
21.33
32.98
44.65
54.97
62.71
67.22
68.43
66.77
62.82
57.07
49.87
41.50
32.40
23.21
14.61
6.95
0.00
-6.85
-14.22
-22.12
-29.59
-35.01
-36.83
-34.27
-27.61
-17.90
-6.37
6.16
19.42
33.41
48.03
62.75
76.78
89.41
100.28
109.39
116.63
121.55
123.15
120.22
112.00
98.66
81.55
62.61
43.68
25.76
8.67
-8.67
-27.64
-48.93
-72.20
-95.92
-117.82
-135.51
-147.18
-151.87
-149.58
-141.11
-127.70
-110.81
-91.73
-71.65
-51.33
-31.28
-11.90
6.24
22.15
34.55
42.07
43.87
39.98
31.52
20.42
8.91
-0.99
-7.81
-10.85
-10.11
-6.22
-0.28
6.23
11.82
15.16
15.36
12.14
5.84
-2.59
-11.81
-20.24
-26.59
-30.18
-31.14
-30.14
-28.12
-25.84
-23.70
-21.88
-20.41
-19.51
-19.30
-19.70
-20.06
-19.30
-16.17
-9.75
0.04
12.39
25.86
38.88
50.19
59.16
65.72
70.26
73.43
75.90
78.12
80.16
81.78
82.50
81.95
80.21
77.81
75.55
73.96
72.95
71.76
69.25
64.45
56.86
46.64
34.26
20.29
5.32
-9.91
-24.38
-36.83
-46.15
-51.78
-53.90
-53.22
-50.45
-45.73
-38.60
-28.42
-15.03
0.66
16.66
30.46
39.95
44.38
44.73
43.55
44.03
48.96
59.84
76.30
96.42
117.37
136.37
151.44
161.60
166.67
166.89
162.55
154.07
142.08
127.53
111.60
95.24
78.90
62.23
44.24
23.73
-0.13
-27.31
-56.75
-86.56
-114.55
-138.80
-158.10
-172.17
-181.37
-186.30
-187.32
-184.33
-176.90
-164.59
-147.48
-126.56
-103.70
-81.32
-61.85
-47.03
-37.61
-33.28
-33.01
-35.56
-39.94
-45.64
-52.37
-60.07
-68.62
-77.87
-87.69
-97.88
-108.02
-117.28
-124.42
-128.20
-127.95
-124.06
-117.98
-111.67
-106.60
-102.98
-99.61
-94.32
-85.10
-70.97
-52.38
-30.97
-8.86
12.00
30.18
44.84
55.69
62.80
66.62
67.80
67.10
64.98
61.72
57.28
51.61
44.86
37.43
29.94
22.83
16.21
9.71
2.61
-5.87
-16.43
-29.47
-44.99
-62.31
-80.00
-95.82
-107.15
-111.70
-108.36
-97.68
-81.77
-63.57
-45.87
-30.53
-18.17
-8.42
-0.59
5.90
11.23
15.38
18.24
19.84
20.41
20.29
19.88
19.48
19.30
19.38
19.69
20.10
20.36
20.03
18.37
14.39
7.11
-4.03
-18.78
-35.96
-53.54
-69.09
-80.29
-85.41
-83.62
-75.13
-61.14
-43.58
-24.67
-6.38
9.94
23.72
35.00
44.06
51.03
55.78
58.14
58.23
56.67
54.42
52.36
50.81
49.44
47.64
45.17
42.70
41.79
44.20
50.76
60.69
71.65
80.89
86.55
88.75
89.31
90.61
93.99
98.92
103.33
104.84
102.22
95.93
87.77
79.68
72.74
66.80
60.98
54.51
47.17
39.21
30.90
22.24
13.03
3.34
-6.00
-13.41
-16.96
-15.11
-7.23
6.20
23.62
42.91
61.68
77.84
89.92
97.28
100.05
98.82
94.25
86.91
77.23
65.71
52.83
38.74
22.72
3.19
-21.73
-52.95
-89.43
-127.98
-164.23
-194.18
-215.63
-228.45
-233.95
-233.70
-228.72
-219.43
-206.20
-189.85
-171.81
-153.64
-136.56
-121.08
-107.25
-94.86
-83.59
-72.97
-62.20
-50.20
-35.99
-19.15
-0.37
18.49
34.78
46.01
50.82
49.57
44.32
38.16
34.02
33.66
37.07
42.71
48.17
51.09
49.99
44.54
35.43
24.03
12.10
1.57
-5.79
-8.59
-6.36
0.29
9.64
19.31
27.03
31.62
33.51
34.76
38.38
47.19
62.70
84.27
109.00
132.60
150.49
159.28
157.77
147.28
130.94
112.55
95.23
80.62
68.92
59.45
51.49
44.65
38.76
33.31
27.21
18.82
6.60
-10.12
-30.79
-53.66
-76.64
-97.66
-115.21
-128.14
-135.51
-136.48
-130.45
-117.45
-98.48
-75.63
-51.86
-30.37
-13.92
-4.07
-0.85
-2.71
-6.99
-10.70
-11.39
-7.87
-0.40
9.57
20.25
30.27
39.16
47.27
55.35
63.95
72.98
81.61
88.48
92.20
91.61
86.19
75.97
61.60
44.32
26.08
9.51
-2.39
-6.98
-2.85
9.44
27.24
46.49
62.91
73.37
76.71
73.54
65.55
54.20
40.14
23.25
3.09
-20.38
-46.62
-74.58
-103.03
-130.64
-156.11
-178.11
-195.34
-206.90
-212.66
-213.53
-211.31
-208.29
-206.32
-206.24
-207.49
-208.36
-206.65
-200.30
-188.12
-169.88
-146.54
-119.78
-91.79
-64.79
-40.62
-20.42
-4.24
8.67
19.45
28.97
37.45
44.58
50.05
54.10
57.65
62.00
68.12
76.24
85.74
95.52
104.47
111.57
116.08
117.42
115.20
109.36
100.46
89.79
79.24
71.04
67.01
68.15
74.03
82.82
91.82
98.40
100.94
99.41
95.14
89.94
85.03
80.43
75.11
67.76
57.76
45.62
32.86
21.29
12.19
5.92
1.82
-1.34
-4.72
-9.31
-15.52
-23.52
-33.12
-43.88
-54.87
-64.65
-71.50
-73.80
-70.62
-62.11
-49.42
-34.47
-19.16
-4.78
8.41
21.19
34.73
49.92
66.74
84.04
99.91
112.35
119.94
122.41
120.63
116.26
111.20
107.15
105.25
106.10
109.93
116.58
125.60
136.23
147.62
159.08
170.47
182.30
195.29
209.73
224.71
237.86
245.86
245.56
235.12
214.57
185.42
149.76
109.45
65.93
20.69
-24.02
-65.06
-99.01
-123.35
-137.70
-144.26
-147.09
-150.87
-159.16
-173.50
-193.16
-215.96
-239.33
-261.13
-279.84
-294.05
-302.06
-301.89
-291.84
-271.53
-242.66
-208.91
-174.91
-144.81
-121.02
-103.98
-92.63
-85.48
-81.38
-79.82
-80.53
-82.99
-86.09
-88.25
-87.86
-83.69
-75.32
-63.15
-48.10
-31.33
-13.96
3.04
18.58
31.62
41.08
46.54
48.61
49.29
51.55
58.42
71.83
91.80
116.43
142.62
167.37
188.87
206.92
222.77
238.22
254.92
273.75
294.56
316.13
336.25
352.12
360.87
360.28
349.44
329.09
301.22
268.60
233.79
198.45
163.36
128.28
92.61
55.78
17.38
-22.68
-64.14
-106.24
-147.51
-185.85
-219.15
-245.92
-266.04
-280.87
-292.64
-303.49
-314.87
-327.22
-340.35
-353.93
-367.10
-378.29
-384.93
-384.10
-373.82
-354.36
-328.35
-299.82
-272.26
-247.32
-224.77
-203.81
-183.91
-165.46
-148.97
-133.80
-118.04
-99.19
-75.56
-47.49
-17.09
12.87
40.25
64.34
85.65
104.89
122.35
137.56
149.34
156.35
157.34
151.53
138.96
120.97
100.13
79.68
62.63
50.90
45.09
44.57
47.85
52.76
56.71
57.00
51.70
40.85
26.99
14.79
9.36
13.91
28.38
49.45
72.33
92.90
109.34
122.19
133.16
143.57
153.70
162.73
169.64
174.11
176.28
176.57
174.54
168.79
157.64
140.33
117.73
92.49
67.79
46.24
28.81
15.11
4.31
-4.00
-9.43
-11.40
-9.94
-5.93
-0.57
5.46
12.70
22.54
36.34
54.28
74.78
95.18
112.66
125.67
134.43
140.61
146.35
153.26
161.67
170.75
178.88
184.24
185.38
181.52
172.44
158.57
140.57
119.34
95.73
70.46
44.10
16.87
-11.37
-41.44
-74.34
-110.76
-150.16
-189.97
-225.78
-252.71
-267.22
-268.60
-259.17
-243.14
-224.92
-207.67
-193.03
-181.58
-173.88
-170.64
-172.40
-178.56
-186.82
-193.79
-196.08
-191.70
-181.08
-166.62
-151.81
-139.76
-132.21
-129.08
-128.87
-129.38
-128.35
-124.25
-116.20
-103.98
-88.05
-69.44
-49.67
-30.59
-13.86
-0.70
8.35
13.48
15.50
15.49
14.46
13.14
11.78
10.45
9.24
8.49
8.73
10.25
13.00
16.48
19.88
22.46
23.68
23.53
22.30
20.53
18.80
17.52
17.15
18.12
20.71
24.81
29.69
34.31
37.63
39.45
40.26
41.32
43.65
47.28
51.01
53.01
51.65
46.43
38.47
29.69
22.08
17.09
15.91
19.42
28.30
42.09
58.40
73.26
82.29
82.92
75.43
62.71
48.91
37.74
31.67
31.80
38.41
50.86
67.38
84.83
99.01
106.19
104.24
93.75
77.34
58.45
39.62
22.48
8.17
-2.36
-8.12
-9.02
-6.16
-1.87
1.40
1.66
-2.04
-9.81
-21.28
-35.58
-51.13
-65.37
-75.13
-77.43
-70.80
-56.09
-36.13
-14.42
6.47
25.67
44.09
63.23
83.77
105.16
125.52
142.45
153.72
158.09
155.20
145.61
131.12
114.77
100.41
91.46
89.30
92.02
94.29
89.20
71.10
38.16
-7.06
-58.27
-107.86
-149.15
-178.31
-194.49
-199.01
-194.41
-183.32
-167.77
-149.36
-129.54
-109.97
-92.49
-78.73
-69.00
-62.05
-55.20
-45.55
-31.41
-13.03
7.61
27.72
45.07
58.68
68.76
76.27
82.46
88.17
93.46
97.73
100.11
99.89
97.14
92.71
87.83
83.43
79.65
75.95
71.68
66.30
59.31
49.53
35.15
14.27
-13.50
-46.10
-79.34
-108.53
-130.38
-144.16
-151.35
-154.10
-153.77
-150.53
-144.11
-134.96
-124.82
-116.34
-111.67
-111.39
-114.19
-117.45
-118.39
-114.92
-106.14
-92.10
-73.86
-53.08
-31.51
-10.88
7.60
23.15
35.22
43.37
47.40
47.32
43.56
37.09
28.75
19.26
9.01
-1.70
-12.36
-21.95
-29.42
-34.00
-35.96
-36.41
-36.53
-36.80
-36.49
-34.31
-29.34
-22.07
-14.35
-8.30
-5.15
-4.23
-3.61
-1.23
3.84
10.98
18.61
25.18
29.90
32.86
34.37
34.68
33.60
30.95
26.61
20.79
13.88
6.15
-2.42
-12.12
-23.13
-35.20
-47.69
-59.60
-70.17
-78.94
-86.11
-92.05
-96.81
-99.97
-100.51
-97.33
-90.05
-79.66
-68.30
-58.19
-50.33
-43.90
-36.66
-26.59
-13.65
-0.01
10.44
14.47
11.44
4.38
-1.34
-0.98
6.92
19.59
31.96
40.12
44.10
48.15
57.93
76.90
103.68
132.99
158.39
176.27
187.73
197.46
210.62
230.06
255.06
282.20
306.96
325.22
333.93
331.28
317.46
295.02
268.23
242.03
219.39
200.24
181.35
158.29
127.93
89.89
46.74
2.86
-37.04
-68.59
-88.42
-94.88
-88.79
-73.87
-56.35
-43.06
-38.77
-44.45
-56.78
-70.05
-78.85
-80.52
-76.15
-69.49
-64.62
-63.24
-63.52
-61.05
-51.94
-35.96
-18.00
-5.88
-6.44
-21.22
-45.24
-69.57
-85.90
-91.05
-87.78
-82.25
-80.13
-83.01
-88.28
-91.26
-88.32
-78.84
-65.29
-51.63
-41.25
-35.70
-34.12
-34.25
-33.82
-31.60
-27.94
-24.23
-21.74
-21.01
-21.62
-22.58
-23.50
-24.67
-27.08
-31.67
-38.71
-47.72
-57.57
-66.74
-73.51
-76.53
-75.13
-69.79
-62.09
-53.89
-46.59
-40.25
-33.76
-25.59
-14.79
-1.21
14.41
31.06
47.84
63.99
78.46
89.83
96.42
96.60
89.64
75.55
55.30
30.79
4.51
-20.51
-41.45
-56.29
-64.43
-66.67
-64.90
-61.26
-57.57
-55.05
-54.47
-56.33
-60.70
-67.14
-74.43
-80.70
-84.05
-83.17
-77.92
-68.94
-57.50
-44.81
-31.91
-19.68
-9.10
-1.19
3.25
4.02
1.94
-1.53
-4.61
-6.08
-5.72
-4.25
-2.92
-2.43
-2.84
-3.31
-2.96
-1.54
0.32
1.45
0.96
-1.23
-4.01
-6.13
-6.70
-5.82
-4.44
-3.15
-1.86
0.61
5.75
14.19
25.21
37.15
47.77
55.43
59.35
59.34
55.39
47.26
34.85
18.97
2.03
-12.23
-20.39
-21.29
-17.43
-14.27
-18.24
-33.57
-60.08
-93.20
-125.57
-150.38
-163.79
-165.71
-158.58
-145.31
-128.40
-109.19
-89.06
-69.37
-51.44
-36.35
-24.62
-15.87
-9.41
-4.30
0.37
5.14
10.02
14.51
17.70
18.84
17.52
14.37
10.88
8.55
8.10
8.97
9.60
8.47
5.17
0.38
-4.38
-7.24
-6.84
-2.27
6.59
19.29
34.70
51.16
66.92
80.65
92.00
101.47
109.95
117.90
124.73
128.70
127.78
120.74
108.03
91.83
75.25
61.45
52.31
48.36
48.84
52.11
56.23
59.06
58.72
54.01
45.06
33.54
22.22
14.13
11.12
13.05
17.63
21.34
20.97
14.60
2.56
-13.17
-29.63
-44.18
-55.15
-62.12
-65.83
-67.56
-68.63
-69.86
-71.32
-72.62
-73.33
-73.52
-73.91
-75.67
-79.76
-86.21
-93.75
-99.96
-101.99
-97.54
-85.72
-67.20
-43.89
-18.33
6.81
28.85
45.41
54.75
56.29
50.97
41.09
29.27
17.68
7.20
-2.70
-12.84
-23.65
-34.55
-43.95
-50.14
-52.00
-49.73
-44.61
-38.54
-33.12
-29.28
-27.16
-26.17
-25.52
-24.30
-21.82
-17.61
-11.37
-2.85
8.07
21.28
36.29
51.87
66.57
78.84
87.74
93.22
96.14
97.75
98.81
98.98
96.78
91.11
82.26
72.28
64.22
60.11
59.32
58.63
54.21
43.68
27.80
9.74
-6.78
-19.40
-28.01
-33.75
-37.58
-38.96
-36.41
-28.92
-17.50
-5.29
3.79
6.75
3.39
-4.02
-11.67
-16.46
-17.44
-15.80
-14.00
-14.16
-17.08
-21.86
-26.69
-29.98
-31.02
-30.09
-28.13
-26.12
-24.86
-24.82
-26.04
-28.09
-29.97
-30.03
-26.44
-17.75
-3.79
14.30
33.88
52.07
66.49
76.05
80.82
81.50
78.78
73.03
64.77
54.99
45.11
36.65
30.37
26.02
22.90
20.42
18.76
18.98
22.25
28.94
38.04
47.46
54.67
58.04
57.43
54.08
49.74
45.58
41.45
36.03
28.19
18.33
8.74
2.84
2.99
8.53
15.52
18.50
13.36
-0.28
-19.09
-37.65
-51.52
-59.06
-61.90
-63.18
-65.42
-68.93
-72.00
-72.32
-68.72
-62.26
-55.66
-51.97
-52.68
-56.70
-60.77
-60.93
-54.48
-40.93
-22.01
-0.56
20.59
39.45
54.71
65.72
72.46
75.42
75.69
74.50
72.84
71.30
69.98
69.02
68.91
70.60
74.79
81.70
90.37
99.23
106.56
111.34
113.63
114.27
114.50
115.11
116.45
118.05
119.14
119.00
117.18
113.55
107.95
99.90
88.67
73.77
55.29
34.08
11.56
-10.95
-32.64
-53.36
-73.21
-92.15
-109.87
-126.04
-140.79
-154.86
-169.38
-185.14
-201.98
-218.50
-232.59
-242.14
-245.58
-242.14
-231.54
-214.08
-190.43
-161.90
-130.52
-98.76
-69.18
-43.80
-23.56
-8.28
3.09
11.93
19.35
25.86
31.47
36.13
40.15
44.44
50.33
58.91
70.31
83.23
95.18
103.37
105.57
101.06
90.73
76.67
61.34
46.92
35.05
26.65
22.09
21.08
22.94
26.75
31.80
37.82
44.92
53.22
62.20
70.41
75.69
75.96
69.96
57.52
39.60
17.72
-6.57
-31.68
-55.68
-76.42
-91.75
-100.50
-103.10
-101.31
-97.49
-93.36
-89.19
-83.85
-75.53
-62.70
-44.78
-22.24
3.56
30.72
57.04
80.10
97.70
108.12
110.56
105.28
93.40
76.69
57.14
36.96
18.35
3.03
-8.06
-14.97
-18.61
-20.23
-20.57
-20.03
-18.54
-16.24
-13.79
-12.16
-12.15
-13.63
-15.28
-14.80
-9.60
2.36
21.84
48.12
78.87
110.69
139.74
162.59
177.10
182.77
180.66
172.52
160.11
144.32
125.25
102.66
76.27
46.34
13.91
-19.04
-49.80
-75.44
-93.53
-103.11
-105.24
-102.78
-99.55
-99.03
-103.04
-111.40
-122.25
-132.85
-140.62
-143.84
-141.99
-135.53
-125.77
-114.28
-102.45
-91.14
-80.63
-70.85
-61.74
-53.42
-45.73
-38.14
-29.87
-20.05
-8.59
3.51
14.37
21.78
24.08
20.71
12.13
-0.53
-16.00
-33.05
-50.48
-66.91
-80.39
-88.85
-90.64
-85.19
-73.25
-56.57
-37.25
-17.29
1.66
18.09
30.72
38.60
41.53
40.38
36.83
32.81
29.63
27.58
26.08
24.43
22.48
20.87
20.79
22.83
26.59
30.57
32.67
31.49
26.90
20.46
14.79
12.50
14.99
21.83
30.70
38.40
42.04
40.05
32.72
21.86
10.17
0.34
-5.73
-7.12
-4.24
1.84
9.43
17.07
23.48
27.88
29.99
30.16
29.28
28.35
28.39
29.99
33.34
38.40
45.17
54.21
66.42
83.08
105.41
134.08
168.25
205.28
240.95
270.57
290.50
299.16
297.42
287.33
270.93
249.19
221.92
188.81
150.26
108.18
65.17
24.09
-13.02
-44.98
-71.41
-92.93
-110.78
-127.23
-144.32
-162.77
-181.52
-198.18
-210.64
-218.27
-222.39
-225.38
-229.14
-233.71
-237.36
-237.56
-232.50
-221.46
-204.58
-182.48
-155.36
-124.04
-90.36
-57.50
-29.42
-9.49
0.94
3.08
-0.07
-5.08
-9.86
-14.93
-22.52
-35.08
-52.92
-73.23
-90.82
-100.39
-99.21
-88.47
-72.80
-57.80
-47.23
-41.88
-39.97
-39.22
-38.15
-36.07
-32.41
-25.61
-13.07
6.93
34.05
65.11
95.41
121.05
140.73
155.80
168.84
181.64
193.79
203.29
207.95
206.59
199.47
187.33
170.04
146.31
114.62
74.71
28.87
-18.87
-64.25
-104.54
-139.79
-171.46
-200.72
-226.48
-245.37
-253.03
-246.51
-226.25
-196.12
-162.30
-130.70
-105.22
-86.77
-73.94
-64.11
-54.94
-45.05
-34.12
-22.72
-11.32
-0.13
10.76
21.16
30.37
37.51
41.54
41.97
38.97
34.32
30.43
30.04
34.69
43.38
52.75
57.93
55.46
45.11
30.37
16.53
7.94
5.88
8.49
12.74
16.69
20.56
25.53
32.10
38.59
42.13
40.16
32.27
20.39
7.73
-2.75
-9.41
-11.61
-9.14
-2.13
9.25
24.01
41.03
58.93
77.26
96.23
116.28
137.61
159.56
180.88
200.41
217.52
232.02
243.66
251.49
254.03
249.53
236.88
216.15
188.13
153.81
113.51
67.49
16.84
-35.41
-84.13
-123.58
-149.55
-161.73
-164.19
-163.68
-167.20
-178.89
-198.92
-223.89
-249.13
-270.73
-286.85
-297.66
-304.27
-307.33
-306.16
-298.68
-282.35
-255.56
-218.76
-175.11
-129.49
-86.96
-51.39
-24.84
-7.87
-0.08
-0.72
-8.47
-20.97
-34.94
-46.70
-53.35
-53.92
-49.42
-42.10
-34.00
-25.86
-17.50
-8.61
0.46
8.70
14.59
16.68
13.63
4.12
-12.39
-34.54
-58.21
-76.78
-83.06
-72.20
-44.16
-3.98
40.17
80.46
112.26
134.98
151.03
163.41
174.10
183.90
192.96
201.47
209.67
216.81
220.59
217.30
202.82
174.53
132.86
81.61
27.09
-23.72
-65.50
-95.85
-115.39
-126.94
-133.87
-138.72
-142.70
-145.70
-146.95
-145.81
-142.13
-136.21
-128.56
-119.39
-108.54
-95.65
-80.61
-63.79
-46.11
-28.72
-12.56
2.09
15.70
29.37
44.48
62.26
83.42
107.61
133.35
158.13
178.97
193.48
200.61
201.12
197.32
192.16
188.32
187.66
191.01
198.46
209.40
222.70
236.73
249.58
259.38
264.61
264.17
257.37
243.67
223.12
196.79
166.92
136.73
109.31
86.31
67.15
49.15
28.71
2.86
-29.48
-67.13
-107.06
-145.49
-178.97
-205.49
-224.94
-238.99
-250.29
-261.42
-273.55
-286.14
-297.06
-303.78
-304.26
-297.54
-283.86
-264.26
-240.26
-213.76
-186.81
-161.27
-138.22
-117.90
-99.74
-83.29
-68.88
-57.85
-51.85
-51.83
-56.71
-63.88
-70.12
-73.13
-72.39
-68.60
-63.04
-56.89
-51.76
-50.15
-55.19
-69.03
-90.27
-113.01
-128.32
-128.35
-110.15
-77.91
-40.94
-9.09
11.54
20.76
22.83
23.09
24.69
27.69
30.23
30.29
26.94
20.80
13.48
6.90
3.14
3.38
7.76
15.27
24.44
34.44
45.17
56.59
67.84
76.72
80.75
78.94
73.79
71.42
79.38
103.13
143.05
192.89
242.30
280.94
301.88
303.95
290.37
266.50
237.02
204.96
171.73
138.52
106.84
78.83
56.09
38.48
24.14
10.64
-3.43
-17.81
-30.81
-40.89
-48.04
-53.72
-59.84
-67.14
-74.39
-78.79
-77.36
-68.63
-53.46
-34.96
-17.62
-7.01
-8.12
-24.07
-54.53
-93.71
-131.72
-156.97
-161.04
-142.20
-106.24
-64.10
-27.40
-4.10
3.53
-1.96
-15.31
-30.70
-43.22
-49.75
-48.79
-40.28
-25.21
-4.40
21.83
53.58
89.90
127.61
160.92
183.04
189.09
178.40
155.23
126.65
99.80
79.26
66.11
59.52
58.24
62.10
71.78
87.56
108.42
131.52
153.25
170.97
184.25
194.82
205.26
217.11
229.70
240.16
244.64
240.05
224.95
199.56
164.71
121.21
69.82
12.24
-47.75
-104.31
-150.48
-180.53
-191.86
-186.11
-168.55
-146.38
-126.74
-114.79
-113.15
-121.92
-139.14
-161.79
-186.19
-208.27
-223.60
-228.10
-219.27
-197.78
-168.10
-137.65
-114.13
-102.28
-101.78
-107.41
-111.75
-108.62
-96.11
-76.78
-55.90
-38.76
-28.06
-23.83
-24.23
-27.15
-30.85
-34.12
-35.67
-34.33
-29.48
-21.26
-10.97
-0.76
7.13
11.00
10.23
5.42
-1.73
-8.87
-13.37
-13.08
-6.54
6.77
26.65
52.29
82.29
114.44
145.43
171.41
189.17
198.08
201.23
204.30
213.05
230.23
253.94
278.67
298.43
309.22
310.47
303.89
291.11
272.67
248.04
217.17
181.84
145.31
110.53
78.15
46.42
12.79
-23.57
-60.39
-93.19
-118.54
-136.38
-150.57
-166.90
-189.55
-219.02
-252.15
-284.16
-311.47
-332.39
-346.33
-351.50
-344.46
-321.98
-284.18
-236.50
-188.05
-148.29
-122.66
-110.93
-107.86
-106.62
-101.74
-90.98
-75.30
-57.28
-39.96
-25.71
-16.15
-12.46
-15.29
-23.82
-36.19
-49.15
-58.93
-62.57
-58.33
-46.15
-27.42
-4.10
21.94
49.60
77.99
105.89
131.44
152.47
167.80
177.97
185.89
195.45
209.97
230.75
256.64
284.15
308.81
326.54
334.48
331.67
318.80
297.79
271.00
240.54
207.88
173.95
138.71
101.36
60.58
14.91
-36.00
-90.56
-144.88
-193.20
-229.65
-250.05
-253.47
-242.57
-222.73
-199.76
-178.23
-159.87
-144.14
-129.53
-115.17
-101.96
-91.94
-86.97
-87.18
-90.48
-93.10
-91.67
-84.71
-73.42
-61.34
-52.49
-49.88
-54.34
-64.61
-78.34
-93.01
-106.19
-115.46
-118.31
-112.62
-97.56
-74.65
-47.89
-22.55
-3.30
7.38
10.02
6.99
1.21
-5.51
-12.83
-21.09
-30.56
-40.62
-50.21
-58.36
-64.91
-69.99
-73.99
-76.91
-78.38
-78.14
-76.37
-74.06
-72.52
-72.77
-74.64
-76.64
-76.25
-71.05
-59.70
-42.45
-21.05
1.99
24.03
42.81
56.77
65.17
68.28
67.27
64.06
60.75
58.96
59.37
61.46
63.89
65.24
64.75
62.77
60.61
60.00
62.27
67.79
75.82
84.78
93.02
99.77
105.41
111.40
119.44
130.35
143.52
156.94
167.85
173.66
172.82
164.88
150.29
129.86
104.51
75.53
44.83
15.17
-10.49
-30.03
-43.16
-51.47
-57.49
-63.25
-69.38
-75.06
-78.99
-80.79
-81.52
-83.37
-88.40
-97.21
-108.39
-119.01
-125.81
-126.38
-119.83
-107.10
-90.34
-72.21
-55.11
-40.41
-28.44
-18.71
-10.46
-3.30
2.63
6.83
9.08
9.79
10.16
11.52
14.77
20.17
27.53
36.21
45.31
53.72
60.48
65.11
67.24
67.00
65.43
64.46
66.25
72.32
82.95
97.16
113.56
129.74
143.32
152.66
157.32
157.88
155.39
150.96
145.54
140.22
134.52
126.88
115.54
99.33
78.35
53.74
27.38
-2.56
-31.67
-53.43
-64.07
-64.61
-58.38
-48.17
-35.81
-22.50
-9.06
4.67
16.96
27.85
37.66
46.67
55.53
64.54
73.62
82.29
90.37
96.81
99.92
101.47
102.17
102.77
103.82
105.51
107.77
110.72
114.05
117.41
120.49
122.86
124.45
125.25
125.16
124.09
122.15
119.31
115.67
111.40
106.46
101.06
95.35
88.59
80.35
71.05
61.51
52.30
43.58
35.15
26.92
18.91
10.36
1.00
-8.57
-17.32
-24.54
-30.01
-33.91
-36.51
-38.02
-40.79
-46.06
-53.03
-59.75
-64.91
-68.30
-70.28
-71.26
-71.55
-77.19
-91.17
-110.75
-130.20
-145.65
-156.32
-163.06
-167.08
-169.41
-182.75
-213.59
-256.50
-299.79
-335.49
-361.80
-380.14
-392.57
-400.53
-424.15
-473.53
-540.03
-605.32
-657.30
-693.98
-718.69
-735.80
-748.82
-785.12
-858.81
-959.44
-1063.65
-1155.94
-1233.58
-1300.38
-1361.08
-1261.18
-950.05
-515.48
-99.47
219.48
435.44
572.61
657.49
710.10
743.78
742.23
699.19
631.57
568.23
528.83
517.89
530.38
557.50
590.32
602.60
580.56
532.07
477.09
430.52
397.17
375.79
363.19
356.48
341.68
311.69
271.66
232.84
202.54
181.42
167.33
157.64
150.78
140.26
122.93
101.38
80.86
64.60
52.68
43.89
37.07
31.64
25.35
17.08
7.72
-0.97
-7.92
-13.02
-16.46
-18.36
-18.58
-17.01
-13.70
-8.91
-3.22
3.12
9.72
16.55
23.41
30.31
37.21
43.91
50.35
56.25
61.13
63.99
63.24
57.37
45.73
29.45
11.34
-4.75
-15.66
-20.11
-19.37
-16.36
-14.00
-13.96
-16.50
-21.17
-27.42
-34.89
-42.76
-48.99
-50.44
-44.21
-29.34
-7.69
15.90
35.79
47.17
48.06
39.81
25.86
10.32
-3.73
-15.04
-24.09
-32.07
-39.85
-47.26
-52.84
-55.05
-53.20
-48.31
-43.06
-40.52
-42.60
-49.33
-59.04
-69.00
-76.74
-81.00
-80.28
-73.40
-59.76
-39.52
-14.21
13.40
39.76
61.76
77.64
87.27
91.49
91.44
87.96
81.41
71.92
59.88
46.07
31.73
18.31
6.87
-2.16
-9.05
-14.63
-19.85
-25.68
-33.05
-42.66
-55.10
-70.59
-87.98
-104.66
-116.42
-118.70
-108.15
-84.28
-49.99
-10.61
27.78
60.15
83.64
97.53
102.72
100.83
93.67
82.88
69.81
55.79
42.25
30.58
21.87
16.54
14.25
13.81
13.52
11.54
6.47
-2.10
-13.89
-27.80
-42.08
-53.99
-60.29
-58.18
-46.42
-25.92
1.08
31.17
60.51
85.66
104.92
117.96
125.29
127.43
124.99
119.67
112.84
105.40
97.18
89.11
82.32
77.24
72.89
67.37
60.93
54.07
46.96
38.21
28.26
18.36
10.08
4.50
2.44
7.47
21.19
41.46
61.67
76.49
82.89
80.41
69.94
40.53
-8.89
-71.11
-125.18
-169.65
-208.81
-247.68
-283.62
-309.81
-318.35
-299.18
-248.22
-170.85
-78.91
16.22
107.31
192.50
273.00
333.54
362.72
357.62
324.99
278.06
228.52
183.46
145.92
115.83
91.61
74.93
73.18
76.82
83.52
91.11
98.04
103.50
107.11
108.70
110.92
119.56
133.07
151.41
173.38
197.02
219.05
234.50
237.89
227.03
203.66
171.25
137.09
107.54
86.63
74.95
69.73
66.30
60.23
53.36
45.12
35.57
23.67
8.32
-10.83
-33.02
-56.40
-78.28
-95.82
-108.31
-116.44
-121.80
-125.44
-127.47
-127.36
-124.40
-117.90
-107.43
-93.86
-81.28
-73.06
-69.96
-70.33
-71.93
-73.30
-73.76
-72.99
-71.40
-75.81
-90.73
-115.20
-143.76
-170.97
-193.89
-211.85
-225.17
-234.63
-251.09
-281.44
-323.79
-369.39
-409.82
-441.29
-463.98
-479.98
-491.88
-515.28
-560.44
-625.87
-700.97
-775.24
-843.74
-906.25
-964.45
-936.89
-787.01
-542.83
-275.45
-42.92
133.64
258.31
343.92
403.28
446.38
466.80
460.56
433.41
398.41
367.48
346.20
335.03
332.20
335.55
333.13
317.23
289.37
257.61
229.53
208.48
194.34
185.69
181.30
174.06
157.63
134.58
110.64
90.48
75.88
66.48
61.32
59.83
58.64
55.54
50.91
46.30
42.12
37.62
31.63
23.55
13.64
1.71
-11.94
-26.33
-40.69
-55.74
-72.96
-94.28
-121.66
-156.04
-196.69
-240.81
-283.97
-316.19
-330.57
-324.14
-299.00
-261.51
-219.81
-180.80
-148.12
-121.89
-100.21
-81.62
-65.33
-51.27
-39.38
-28.89
-18.48
-6.90
6.36
20.78
34.31
44.90
51.24
53.21
51.73
48.44
44.74
41.57
38.97
36.08
31.92
25.80
17.67
8.12
-2.02
-11.91
-21.06
-29.30
-36.94
-44.25
-51.19
-57.40
-62.36
-65.47
-66.31
-64.79
-61.29
-56.39
-50.83
-45.25
-40.17
-35.82
-32.33
-29.73
-28.01
-27.08
-26.92
-27.37
-28.30
-29.47
-30.70
-31.79
-32.67
-33.28
-33.66
-33.82
-33.75
-33.46
-32.92
-32.12
-31.07
-29.84
-28.55
-27.24
-25.96
-24.66
-23.17
-21.31
-18.95
-16.08
-12.82
-9.45
-6.29
-3.57
-1.26
0.86
3.20
6.21
10.14
15.03
20.66
26.80
33.32
40.49
48.81
58.89
71.12
85.43
101.25
117.72
134.09
150.09
166.03
182.62
200.50
219.94
240.64
262.27
284.64
307.89
331.86
355.41
376.02
390.18
394.93
388.96
373.47
351.61
326.86
301.69
277.16
253.71
232.50
216.04
207.75
210.31
224.09
246.49
272.70
297.66
317.84
332.18
341.40
346.25
346.13
338.56
320.67
291.58
253.84
213.59
178.27
153.73
141.71
139.46
141.45
142.15
138.34
129.77
117.83
103.83
87.81
68.48
44.47
15.81
-15.24
-44.60
-67.96
-82.18
-86.83
-83.74
-76.39
-68.16
-61.15
-55.76
-50.93
-45.02
-36.19
-23.01
-4.65
18.71
45.49
72.64
96.15
112.02
117.77
113.13
100.16
82.47
63.73
46.79
32.86
21.42
10.93
-0.56
-14.83
-32.86
-54.58
-79.09
-104.88
-130.29
-154.83
-179.07
-205.05
-235.67
-272.93
-316.80
-364.11
-408.57
-442.60
-459.65
-456.68
-435.49
-402.45
-366.57
-337.05
-321.01
-321.39
-336.21
-358.80
-379.58
-388.93
-380.38
-352.95
-311.45
-264.43
-220.52
-185.23
-159.32
-139.62
-121.81
-102.73
-81.55
-59.36
-37.60
-16.46
4.89
27.98
53.60
80.86
107.60
131.07
149.18
161.25
168.10
171.15
171.71
170.28
166.38
159.50
150.14
140.35
132.93
129.69
129.41
127.69
118.81
99.06
69.79
37.58
11.72
-0.47
3.00
18.18
37.90
55.89
69.25
78.40
84.96
89.29
89.69
83.69
70.03
49.85
26.48
4.27
-13.04
-23.18
-25.35
-20.12
-8.92
5.91
21.40
33.96
40.02
36.66
22.56
-1.01
-29.93
-57.88
-78.20
-86.40
-81.50
-66.36
-45.94
-25.05
-6.69
7.97
18.75
25.20
26.88
24.09
18.54
13.24
11.12
13.43
17.91
19.99
15.03
1.39
-17.71
-35.32
-44.23
-40.79
-26.77
-8.93
4.63
8.13
0.30
-15.86
-35.63
-54.60
-70.20
-81.13
-86.28
-84.24
-74.04
-56.91
-36.48
-18.26
-6.90
-4.84
-11.09
-22.14
-33.69
-42.01
-45.61
-44.47
-40.04
-34.29
-28.99
-25.25
-23.14
-21.72
-19.70
-16.52
-12.55
-9.30
-8.63
-11.54
-17.26
-23.12
-26.30
-24.81
-19.18
-11.28
-3.69
2.16
6.46
10.60
16.39
24.25
33.49
41.56
45.34
42.29
31.35
14.36
-5.00
-21.88
-32.27
-34.49
-29.61
-20.96
-12.14
-5.71
-2.48
-1.75
-1.91
-1.42
1.20
6.60
14.79
25.37
37.77
51.65
66.85
83.22
99.82
114.90
125.87
130.42
127.79
119.04
106.99
94.16
81.51
68.39
53.32
36.14
18.77
4.41
-4.44
-8.00
-9.12
-12.60
-22.63
-40.66
-64.69
-89.46
-108.12
-115.00
-107.41
-86.68
-57.60
-26.06
3.14
27.18
45.47
57.64
62.94
59.97
48.13
28.75
5.58
-16.24
-32.43
-41.06
-42.94
-40.52
-36.49
-32.77
-29.99
-27.93
-25.63
-22.63
-19.19
-16.25
-14.78
-14.71
-14.26
-10.14
1.05
20.53
46.77
76.09
104.23
128.37
147.82
163.14
175.42
184.77
190.71
192.28
189.06
181.39
170.37
158.16
146.95
138.29
132.35
127.55
121.19
110.63
94.57
73.76
50.82
28.51
8.16
-10.96
-30.79
-52.97
-77.23
-101.36
-122.23
-137.43
-146.54
-150.57
-151.03
-148.71
-143.30
-134.42
-122.56
-109.66
-98.10
-89.44
-83.33
-77.94
-71.83
-65.09
-59.96
-59.35
-64.78
-75.37
-88.29
-100.76
-111.72
-122.10
-133.51
-146.26
-158.07
-164.61
-161.45
-146.54
-121.24
-89.83
-57.88
-30.01
-8.76
5.75
14.60
18.74
18.13
12.09
0.72
-14.12
-28.52
-38.09
-40.36
-36.34
-30.34
-27.54
-31.29
-41.54
-55.39
-68.82
-78.91
-84.51
-85.43
-81.33
-71.37
-54.89
-32.71
-7.80
16.02
35.84
51.06
63.21
74.89
87.65
101.08
112.99
120.61
121.98
116.82
106.94
95.55
86.11
80.76
79.51
80.49
80.64
76.95
66.90
49.23
23.96
-6.79
-38.32
-63.33
-73.83
-64.36
-35.49
4.70
42.73
65.00
63.55
39.34
1.41
-37.44
-66.65
-80.59
-79.22
-65.50
-43.81
-18.29
6.41
24.81
31.60
23.28
0.77
-29.87
-59.31
-79.10
-85.57
-82.03
-77.60
-82.49
-103.21
-138.58
-180.32
-215.75
-233.24
-225.67
-192.78
-139.81
-74.94
-7.14
55.89
107.75
143.82
161.78
162.17
148.78
127.76
106.24
89.87
81.55
81.35
87.08
95.95
105.56
114.15
121.17
126.90
132.08
137.50
143.57
149.74
154.62
156.56
154.70
150.27
147.04
149.94
163.25
187.82
219.68
251.26
273.56
279.56
266.27
235.12
190.58
138.08
82.60
28.14
-22.13
-65.43
-100.46
-127.33
-147.71
-163.88
-176.78
-186.11
-190.51
-189.30
-183.58
-176.44
-171.53
-171.40
-176.28
-184.14
-191.92
-196.75
-196.88
-191.29
-179.44
-160.99
-136.39
-107.29
-76.66
-48.02
-24.24
-6.79
4.65
11.37
14.74
15.94
15.68
15.00
15.03
16.96
21.58
28.80
37.84
47.61
57.09
65.65
72.87
78.57
82.49
84.55
85.04
84.35
83.27
82.57
82.83
84.73
88.97
96.09
106.14
118.40
131.16
141.93
148.32
148.73
142.91
132.13
118.40
103.96
90.11
77.08
64.03
50.12
34.97
19.11
3.76
-10.01
-21.82
-31.88
-40.50
-47.45
-51.87
-52.62
-48.89
-40.60
-28.20
-12.30
7.08
30.17
56.68
85.21
112.82
136.23
152.93
162.12
164.18
160.52
152.25
139.96
123.88
104.26
81.52
56.41
30.00
3.71
-20.81
-42.07
-59.40
-73.55
-86.52
-100.66
-117.18
-135.21
-152.32
-165.91
-175.12
-181.49
-188.03
-197.74
-211.54
-227.80
-242.95
-252.68
-253.37
-242.82
-220.86
-189.03
-151.03
-111.25
-73.82
-41.29
-13.67
10.97
35.18
60.32
85.99
110.22
130.87
147.03
159.28
168.81
175.61
177.86
171.89
154.09
122.80
79.67
29.59
-21.04
-66.15
-102.10
-127.62
-143.42
-150.55
-149.93
-142.20
-128.19
-109.47
-87.83
-65.02
-42.30
-20.65
-1.13
14.86
26.08
32.50
35.62
38.66
44.98
56.59
73.04
91.99
110.72
127.36
141.92
155.35
168.19
179.92
188.87
193.01
190.87
182.01
166.60
145.18
118.32
87.32
54.18
21.99
-5.37
-24.59
-34.11
-34.66
-28.60
-18.40
-5.40
10.12
28.14
47.24
63.73
72.54
68.97
50.74
18.88
-22.36
-67.43
-111.27
-150.35
-182.68
-207.15
-222.99
-229.49
-226.77
-216.42
-201.42
-185.65
-172.83
-165.45
-163.96
-166.90
-171.32
-173.81
-171.77
-163.93
-150.57
-133.07
-113.28
-92.62
-72.02
-52.02
-33.29
-17.00
-4.51
3.02
5.48
3.87
0.37
-2.83
-4.62
-5.49
-7.23
-11.44
-18.65
-27.43
-35.21
-39.25
-38.30
-33.71
-28.96
-28.12
-33.68
-45.89
-62.25
-78.83
-91.40
-97.27
-96.30
-90.52
-82.90
-75.73
-69.86
-65.31
-62.01
-58.79
-53.95
-45.64
-32.55
-15.33
2.04
12.08
5.77
-23.13
-71.21
-125.95
-170.40
-190.63
-181.59
-148.05
-101.07
-52.11
-8.02
33.94
81.28
140.09
210.67
288.00
365.66
440.03
511.50
563.10
579.89
555.52
498.61
426.54
354.52
290.75
237.29
192.11
149.99
107.73
63.25
16.53
-30.55
-74.71
-112.15
-140.40
-159.16
-169.87
-171.73
-163.25
-144.47
-119.37
-95.35
-79.90
-77.21
-85.88
-100.33
-112.01
-114.80
-106.97
-92.17
-76.40
-64.68
-59.59
-60.45
-64.51
-67.55
-65.38
-55.70
-39.71
-22.35
-10.02
-8.45
-19.23
-39.33
-62.19
-80.77
-90.57
-91.23
-85.58
-76.27
-66.73
-57.94
-49.57
-41.36
-33.67
-27.05
-21.54
-16.40
-9.56
0.15
13.37
29.12
45.24
59.74
71.21
79.02
83.06
83.02
78.11
67.81
52.51
33.58
13.59
-4.69
-19.28
-29.41
-35.54
-38.98
-40.49
-40.25
-38.11
-34.39
-29.97
-26.77
-26.46
-29.82
-36.36
-44.37
-52.15
-58.17
-62.17
-64.67
-66.98
-70.11
-74.15
-78.30
-80.32
-77.37
-66.90
-48.12
-22.92
4.08
27.49
43.34
50.55
51.05
47.68
42.28
35.14
25.85
15.57
7.51
5.43
10.92
21.94
33.21
39.29
37.72
30.25
20.89
12.81
5.73
-4.29
-21.39
-46.51
-75.53
-100.26
-112.78
-108.72
-88.87
-58.04
-22.09
15.12
52.72
91.46
131.67
171.00
204.23
224.69
226.90
208.87
173.03
125.88
75.88
31.16
-2.60
-23.59
-33.73
-37.39
-39.56
-43.89
-52.29
-65.23
-82.52
-104.04
-129.52
-157.70
-185.58
-208.41
-221.00
-219.48
-202.90
-173.58
-136.49
-97.52
-61.41
-30.80
-6.05
13.75
29.73
42.27
50.98
55.17
54.34
48.90
40.09
29.65
19.20
9.39
-0.01
-9.81
-20.83
-33.26
-46.65
-59.95
-71.85
-81.09
-86.46
-86.80
-81.25
-69.38
-51.45
-28.53
-2.42
24.73
50.76
73.85
92.96
107.73
118.59
126.36
131.81
135.24
136.41
134.92
130.48
123.46
114.63
104.89
95.03
85.43
76.28
67.56
59.08
50.39
40.84
30.03
18.48
7.86
0.70
-0.55
5.20
16.99
31.85
45.80
55.28
58.34
54.98
46.65
35.18
22.00
7.67
-7.67
-23.78
-39.99
-54.97
-67.29
-75.96
-80.96
-83.33
-84.67
-86.44
-89.29
-93.17
-98.00
-104.29
-113.59
-127.69
-147.27
-170.50
-192.86
-208.42
-212.07
-201.88
-179.85
-150.98
-120.90
-93.70
-70.68
-51.00
-32.84
-14.84
3.41
21.46
38.62
54.39
68.55
80.87
90.72
97.11
98.98
95.65
87.36
75.31
61.49
47.90
35.49
23.94
11.74
-2.73
-19.94
-38.15
-53.69
-62.19
-60.30
-47.19
-24.81
2.67
30.55
54.49
71.93
81.85
84.49
81.13
73.38
63.13
52.16
42.38
35.19
31.08
29.08
27.01
22.44
13.60
0.61
-14.78
-29.54
-41.03
-47.77
-49.48
-46.72
-39.93
-29.33
-14.82
3.22
23.86
45.76
67.68
88.65
107.95
125.09
139.20
150.02
157.66
162.58
164.78
163.32
156.60
143.52
125.64
107.33
94.91
93.40
103.88
122.70
143.14
158.85
166.69
168.00
166.54
165.77
166.77
168.07
167.38
163.44
157.37
151.45
147.63
145.73
142.96
134.57
115.71
83.55
38.58
-14.54
-68.68
-115.99
-150.68
-170.48
-176.88
-174.00
-166.81
-159.80
-155.98
-157.04
-163.40
-174.33
-187.76
-200.85
-210.73
-215.80
-216.49
-214.67
-212.36
-209.69
-204.57
-193.71
-174.68
-147.70
-115.96
-84.29
-57.00
-36.46
-22.62
-14.05
-9.19
-7.11
-7.22
-8.70
-9.94
-8.66
-3.21
7.00
20.81
35.97
50.03
61.29
69.15
73.88
76.29
76.92
75.99
73.44
69.18
63.37
56.17
47.77
38.08
26.80
13.63
-1.18
-16.77
-31.56
-43.59
-51.04
-52.91
-49.27
-41.30
-30.87
-19.74
-9.16
0.23
8.50
15.60
21.22
24.51
24.46
20.68
13.98
6.14
-0.83
-5.92
-9.75
-14.06
-20.12
-27.28
-32.51
-31.53
-21.14
-1.03
25.60
53.49
77.46
94.51
104.49
108.96
109.74
107.75
102.83
94.70
83.63
70.86
58.47
48.28
41.41
37.49
34.77
30.78
23.39
11.93
-2.41
-17.20
-29.49
-36.90
-37.98
-32.37
-20.69
-4.34
14.20
31.86
45.32
52.28
52.24
47.04
40.10
35.15
34.83
40.09
50.05
62.57
74.87
84.22
88.19
85.40
76.35
63.09
48.93
36.88
28.35
22.71
17.72
11.06
1.69
-9.63
-20.65
-28.99
-32.94
-31.85
-26.10
-16.27
-3.13
12.60
29.87
47.49
64.45
80.20
94.61
107.31
116.73
120.35
115.33
99.85
74.30
41.49
6.08
-27.09
-54.31
-73.95
-86.26
-92.74
-95.18
-94.74
-92.15
-87.59
-81.63
-75.53
-70.68
-67.91
-66.98
-66.49
-64.67
-60.64
-54.89
-49.22
-45.40
-44.20
-44.57
-44.48
-42.03
-36.35
-28.04
-18.48
-8.82
0.97
11.83
24.97
40.81
58.50
76.08
91.32
102.92
110.87
116.27
120.55
124.45
127.81
129.83
129.91
127.73
123.36
116.59
106.90
94.03
78.53
61.68
44.68
27.85
10.33
-8.75
-29.06
-48.37
-63.07
-70.28
-69.50
-63.13
-54.88
-47.59
-41.66
-35.65
-28.07
-19.42
-12.66
-11.77
-19.44
-34.96
-54.54
-72.31
-83.10
-84.27
-75.81
-59.88
-38.59
-12.99
16.68
49.83
84.47
117.06
143.77
162.17
172.05
175.14
173.37
167.21
155.47
136.31
109.04
74.90
36.59
-3.48
-44.64
-88.14
-135.32
-185.58
-234.81
-276.64
-304.85
-315.89
-310.48
-292.53
-267.32
-239.31
-211.09
-183.53
-156.68
-130.59
-105.58
-81.85
-59.38
-37.87
-17.18
2.32
20.10
35.92
50.39
64.62
79.66
96.13
113.63
131.37
148.59
165.08
181.30
197.87
215.30
233.17
250.49
265.82
278.05
286.89
292.77
296.34
297.98
297.82
295.64
291.38
285.11
276.65
265.28
249.78
228.68
201.29
168.80
134.30
102.38
77.26
61.10
52.90
48.71
43.17
31.23
10.26
-18.76
-51.30
-80.51
-99.75
-104.92
-95.99
-76.78
-53.36
-31.68
-15.82
-7.12
-4.84
-7.46
-13.84
-23.68
-36.95
-53.30
-71.55
-89.97
-106.98
-121.78
-134.66
-146.70
-159.30
-173.57
-190.10
-209.05
-230.80
-255.97
-285.10
-317.55
-350.62
-379.50
-398.81
-404.61
-396.33
-377.27
-352.87
-328.26
-306.38
-287.36
-270.03
-253.47
-238.08
-225.04
-214.93
-206.67
-197.61
-184.91
-167.24
-145.67
-123.22
-103.47
-88.99
-80.39
-76.54
-75.42
-75.07
-74.22
-72.78
-71.13
-69.63
-67.93
-64.70
-57.88
-45.66
-27.56
-4.69
20.18
43.74
63.52
78.51
89.43
97.67
104.33
109.46
112.33
112.33
109.78
106.38
104.42
105.64
110.01
116.05
121.66
125.80
129.14
133.57
140.36
148.51
154.58
153.86
143.30
123.31
98.13
73.72
54.80
42.90
35.59
28.87
19.35
6.35
-8.32
-21.91
-32.82
-41.71
-51.01
-63.40
-79.54
-96.89
-110.90
-116.67
-111.69
-97.14
-78.06
-60.88
-50.76
-49.12
-53.16
-57.44
-56.87
-49.45
-36.95
-23.80
-14.09
-9.45
-8.35
-7.47
-4.26
1.66
8.07
11.98
11.55
7.32
1.97
-1.62
-1.97
0.17
2.68
3.34
1.22
-2.67
-6.38
-7.59
-4.98
1.50
10.82
21.49
32.15
41.81
50.28
57.75
64.74
71.64
78.53
84.92
89.97
93.00
93.71
92.63
90.67
88.70
86.68
84.19
81.16
78.22
76.61
77.52
81.19
86.15
89.65
88.59
81.63
70.13
57.42
46.92
40.45
37.80
37.68
38.93
40.61
42.64
45.51
49.01
51.76
51.88
48.38
41.92
34.14
24.63
12.66
-1.29
-15.74
-29.56
-42.13
-52.99
-61.78
-69.06
-80.83
-100.66
-126.01
-149.13
-162.05
-161.07
-147.61
-127.38
-109.09
-107.58
-129.87
-170.12
-214.04
-249.22
-271.02
-281.45
-284.58
-285.16
-295.55
-322.05
-360.85
-402.20
-439.19
-470.67
-498.06
-521.41
-475.88
-332.57
-119.99
98.95
279.73
411.62
501.84
556.52
591.85
615.53
621.12
604.20
569.12
526.04
485.66
451.39
422.40
397.26
373.05
340.18
293.45
235.94
176.42
122.45
76.33
37.15
3.35
-27.75
-63.17
-106.95
-158.01
-211.14
-260.93
-303.77
-336.82
-357.59
-365.31
-363.38
-356.05
-346.66
-336.77
-327.06
-317.95
-309.03
-299.43
-288.59
-277.17
-266.01
-255.67
-246.33
-238.17
-231.46
-225.90
-220.40
-213.47
-203.15
-187.26
-163.88
-132.05
-92.42
-48.60
-6.36
27.72
48.64
55.10
50.50
41.59
35.48
36.98
46.57
61.10
75.72
86.52
91.76
92.09
89.64
86.62
84.71
85.23
89.61
99.16
114.61
135.59
160.55
187.25
213.74
239.04
262.87
284.36
301.09
308.54
301.77
277.82
238.22
189.66
142.42
106.76
88.79
88.06
98.00
109.54
115.16
112.00
101.43
86.66
69.69
49.98
25.95
-1.86
-29.61
-50.71
-59.05
-52.20
-32.74
-7.32
16.54
32.74
38.07
32.64
19.28
2.45
-12.62
-22.17
-25.31
-24.30
-22.90
-24.12
-28.61
-34.76
-40.86
-46.62
-53.49
-62.87
-74.26
-84.00
-87.16
-80.50
-63.92
-41.28
-18.27
0.18
11.18
14.04
9.15
-2.78
-21.19
-45.18
-72.71
-100.61
-124.99
-141.66
-147.36
-140.92
-123.76
-100.00
-75.29
-55.30
-44.32
-44.52
-55.76
-76.01
-101.72
-128.45
-151.62
-167.24
-173.36
-170.08
-159.16
-143.33
-124.66
-104.35
-82.81
-60.62
-38.97
-19.77
-4.79
5.29
11.08
14.25
16.77
20.15
24.72
29.83
34.27
36.97
37.49
35.96
32.84
28.71
23.95
18.88
14.06
10.19
8.21
9.15
13.96
23.27
37.12
54.56
73.61
91.59
105.94
114.89
118.23
117.21
113.77
109.80
106.27
103.22
100.19
96.77
92.96
89.00
84.99
80.64
75.39
68.78
60.72
51.78
42.92
35.46
30.61
29.20
31.41
36.88
44.66
53.65
62.83
71.56
79.78
87.81
95.82
103.44
109.61
112.88
112.35
108.40
102.59
97.17
93.87
93.09
93.96
94.85
94.33
91.81
87.50
81.87
75.11
67.00
57.18
45.91
34.22
23.79
16.26
12.63
12.98
16.60
22.29
28.96
35.81
42.22
47.72
51.85
54.07
53.90
51.50
47.71
44.16
43.13
46.26
53.90
64.41
74.33
79.74
77.72
67.68
51.51
32.92
15.72
2.55
-5.67
-9.34
-9.30
-6.25
-0.49
7.42
16.37
24.65
30.68
33.62
33.73
32.34
30.75
29.72
29.11
28.19
26.04
22.54
18.08
13.28
8.98
5.50
2.69
0.02
-3.40
-8.57
-16.02
-25.47
-35.78
-44.71
-49.93
-49.76
-44.08
-34.35
-23.11
-12.67
-4.22
2.40
8.38
14.62
21.00
26.42
29.33
28.94
25.63
20.85
16.30
13.13
11.34
10.12
8.28
4.85
-0.53
-7.66
-16.05
-24.90
-33.18
-39.82
-43.76
-44.40
-41.87
-36.97
-31.04
-25.41
-21.29
-19.28
-19.46
-21.14
-22.91
-23.11
-20.59
-15.36
-8.74
-2.78
0.45
-0.15
-4.48
-12.02
-22.09
-34.55
-49.71
-67.22
-85.46
-101.47
-111.48
-112.61
-104.03
-87.30
-65.89
-44.04
-25.65
-13.61
-9.24
-11.87
-19.24
-28.16
-36.02
-41.83
-46.09
-49.98
-53.89
-56.30
-54.19
-44.94
-28.40
-7.85
10.80
21.86
22.97
15.82
5.47
-2.42
-4.35
0.07
8.65
18.01
25.96
32.15
38.05
45.72
56.60
70.36
85.22
98.95
109.75
117.06
121.42
123.68
124.30
122.73
117.69
107.91
92.94
73.49
51.49
29.50
9.90
-5.50
-16.10
-22.40
-25.81
-27.98
-30.28
-33.34
-37.32
-42.00
-47.18
-52.83
-58.57
-63.92
-68.17
-70.81
-71.79
-71.38
-69.92
-67.48
-63.92
-59.17
-53.57
-47.85
-42.77
-38.60
-34.85
-30.51
-24.68
-17.38
-9.62
-3.32
-0.33
-1.68
-7.27
-15.70
-24.93
-32.75
-37.49
-38.09
-34.52
-27.32
-17.31
-5.60
7.05
19.71
31.58
41.48
48.20
50.95
49.79
46.04
41.82
39.18
38.79
39.93
40.58
39.10
35.41
31.08
28.34
28.23
30.13
31.94
31.82
29.31
25.55
22.27
20.45
19.97
19.97
20.24
21.38
24.66
30.76
38.75
46.36
51.00
51.60
49.08
45.92
44.63
46.18
49.44
51.87
50.51
43.29
30.17
12.78
-5.92
-22.57
-34.40
-39.73
-38.30
-30.85
-18.61
-2.60
16.66
39.21
65.31
94.79
126.57
158.76
188.57
212.82
228.63
234.13
228.95
214.57
193.97
170.70
147.99
127.85
110.63
95.31
79.92
62.35
41.01
15.60
-12.44
-40.18
-64.12
-81.61
-92.10
-97.37
-100.70
-105.49
-113.93
-126.84
-144.29
-166.59
-194.36
-227.65
-264.70
-300.99
-330.00
-345.45
-344.02
-326.87
-299.14
-267.75
-238.54
-214.26
-194.46
-176.59
-158.17
-138.04
-116.72
-95.63
-76.06
-58.59
-43.14
-29.64
-18.34
-10.02
-5.58
-5.38
-8.78
-13.95
-18.52
-20.30
-18.05
-11.80
-2.57
8.40
20.07
31.87
43.82
56.13
69.06
82.58
96.23
109.06
119.89
127.97
133.19
136.42
139.04
142.22
146.49
151.41
156.29
160.82
165.76
172.48
182.21
194.91
208.92
221.60
230.26
233.32
230.43
222.14
209.17
191.98
170.77
145.94
118.45
89.75
61.42
34.25
7.95
-19.19
-49.31
-83.63
-121.63
-160.44
-195.53
-221.96
-235.76
-235.51
-223.09
-203.32
-182.39
-166.12
-158.07
-158.43
-165.02
-174.70
-185.13
-195.37
-205.14
-213.91
-220.25
-222.55
-220.02
-213.61
-205.56
-198.06
-191.30
-183.16
-170.24
-150.13
-123.12
-92.59
-63.78
-41.18
-27.12
-20.99
-20.23
-22.15
-24.77
-27.38
-30.07
-32.95
-35.21
-35.58
-33.02
-27.22
-19.32
-11.19
-4.64
-0.40
2.22
4.81
8.75
14.32
20.51
25.48
27.69
26.22
21.39
14.36
6.74
0.33
-3.32
-3.17
0.92
8.22
16.95
25.00
30.49
32.30
30.45
25.89
20.08
14.79
11.90
12.76
17.76
25.93
35.09
42.74
46.94
47.25
44.35
39.68
34.52
29.74
25.70
22.55
20.53
19.66
19.80
20.81
22.56
25.35
29.63
35.48
42.20
48.21
51.45
50.02
43.20
31.79
18.03
4.74
-5.44
-11.02
-11.93
-9.55
-5.97
-3.15
-2.28
-3.13
-4.69
-5.78
-6.15
-6.60
-8.56
-13.00
-19.85
-27.92
-35.23
-40.10
-42.02
-41.36
-39.13
-36.08
-32.32
-27.69
-22.34
-17.08
-13.02
-11.15
-11.58
-13.48
-15.34
-16.06
-15.24
-13.59
-12.18
-11.95
-13.08
-14.90
-16.59
-17.65
-18.39
-19.37
-21.04
-23.16
-24.74
-24.52
-21.68
-16.40
-9.95
-4.05
-0.22
0.91
-0.09
-2.05
-3.36
-2.64
0.82
7.05
15.53
25.43
35.46
44.01
49.37
50.37
46.94
40.35
32.68
26.19
22.30
21.16
21.79
22.77
22.89
21.60
19.00
15.63
12.10
8.95
6.49
4.89
4.19
4.51
5.99
9.00
14.05
21.14
29.55
37.97
44.87
49.45
51.69
52.25
51.88
50.87
48.96
45.52
40.15
33.33
26.12
19.94
15.91
14.24
14.32
15.08
15.56
15.27
14.22
12.77
11.16
9.57
7.89
5.76
3.03
-0.36
-4.18
-8.00
-11.25
-13.26
-13.48
-11.61
-8.12
-4.01
-0.74
0.41
-1.15
-5.13
-10.45
-15.72
-19.69
-21.69
-21.61
-19.87
-16.89
-13.08
-8.76
-4.20
0.14
3.98
7.27
10.61
14.91
21.27
30.28
41.56
53.85
65.20
73.82
78.63
79.79
78.41
76.08
74.22
73.54
74.06
75.24
76.32
76.47
75.17
72.47
69.22
66.98
67.48
72.17
81.65
95.58
112.87
132.06
151.69
170.26
186.39
199.06
207.94
213.57
217.23
220.60
224.72
229.88
235.68
241.80
248.34
255.82
264.29
272.54
278.30
278.94
272.83
260.34
243.69
225.86
209.40
195.40
183.62
173.14
163.22
153.67
144.85
137.12
130.42
124.15
117.57
109.97
101.01
90.84
79.73
68.13
56.26
44.24
32.06
19.75
7.47
-4.59
-16.31
-27.79
-39.32
-51.38
-64.30
-78.22
-92.94
-108.05
-123.07
-137.79
-152.29
-166.95
-182.09
-197.75
-213.54
-228.83
-242.83
-255.11
-265.89
-276.00
-287.03
-300.88
-319.40
-343.59
-372.85
-404.57
-434.30
-456.74
-467.21
-463.15
-444.88
-415.20
-378.39
-338.68
-300.00
-264.70
-233.46
-205.80
-180.91
-157.74
-135.17
-112.13
-87.52
-61.25
-33.44
-4.01
27.23
60.02
93.48
126.03
155.64
180.35
197.23
204.79
203.42
194.93
180.69
161.14
136.42
107.35
75.53
39.25
-1.27
-42.63
-79.91
-109.74
-131.66
-146.59
-155.02
-156.24
-157.28
-161.75
-167.14
-168.12
-162.95
-155.35
-151.03
-153.89
-164.48
-194.22
-247.57
-317.36
-389.24
-452.58
-504.74
-548.25
-587.25
-624.67
-678.85
-758.28
-853.77
-944.64
-1015.19
-1061.96
-1090.20
-1107.92
-1010.12
-754.74
-390.45
-19.27
285.59
504.47
648.51
737.65
791.07
824.03
829.33
801.84
748.84
687.29
631.22
586.02
551.63
526.27
508.33
482.64
438.74
378.31
312.12
249.82
195.88
151.37
116.28
89.80
67.72
45.35
23.32
6.17
-3.37
-6.34
-5.18
-1.85
3.24
6.50
5.39
1.09
-2.95
-3.90
-1.20
4.39
11.56
19.18
25.33
29.19
32.39
38.10
48.74
64.11
81.57
97.25
107.67
111.12
107.48
98.19
85.60
72.46
61.64
55.58
55.50
60.84
69.17
76.85
81.04
80.59
76.44
70.44
63.87
56.35
46.18
31.34
11.15
-12.91
-37.40
-58.37
-72.50
-78.20
-76.27
-69.34
-60.98
-54.42
-51.75
-53.72
-60.13
-70.13
-82.51
-95.66
-107.44
-115.73
-118.89
-116.33
-109.05
-99.19
-88.91
-79.69
-71.59
-63.51
-54.28
-43.68
-32.71
-23.53
-18.03
-17.06
-19.72
-24.08
-27.93
-29.98
-30.26
-29.61
-29.10
-29.03
-28.64
-26.91
-23.28
-18.35
-14.11
-13.00
-16.50
-24.29
-33.70
-40.37
-40.09
-30.06
-10.24
16.37
45.06
71.16
91.45
105.18
113.47
117.88
119.59
118.85
115.26
108.50
99.10
88.06
76.56
65.63
55.81
47.74
42.36
40.96
44.79
54.23
68.14
84.09
99.04
110.40
117.06
119.62
119.80
119.54
120.26
122.18
124.60
126.62
127.55
127.42
126.50
125.02
123.06
120.91
119.29
119.33
122.14
127.65
134.50
139.94
140.87
134.85
120.82
98.92
70.52
37.81
3.53
-29.23
-57.74
-80.27
-96.63
-107.95
-115.93
-121.71
-125.19
-125.86
-123.22
-117.60
-110.53
-103.64
-98.17
-94.20
-91.16
-88.28
-85.64
-84.23
-85.59
-90.76
-99.10
-108.26
-114.66
-115.46
-109.85
-99.93
-89.19
-80.76
-75.35
-70.67
-62.97
-48.97
-27.88
-2.02
24.36
47.22
64.42
75.83
82.95
87.42
90.45
92.63
93.94
94.21
93.14
90.78
87.50
84.36
82.76
84.07
88.89
96.53
105.20
112.55
116.66
116.75
113.53
108.55
103.28
98.35
93.34
87.49
79.96
70.56
60.24
50.64
43.38
39.27
37.81
37.06
35.02
30.51
23.92
17.18
12.84
12.81
17.77
27.31
40.20
55.09
70.59
85.09
96.89
104.26
105.92
101.65
92.51
80.23
66.66
53.28
41.01
30.33
21.45
14.42
9.00
4.68
0.96
-2.54
-5.88
-8.78
-10.64
-10.83
-8.63
-3.77
3.39
11.47
18.52
22.47
21.99
17.25
9.51
0.92
-6.70
-12.30
-15.78
-17.55
-18.03
-17.57
-16.37
-14.47
-11.41
-6.20
2.61
16.01
33.44
52.21
67.76
75.00
70.52
53.74
27.29
-4.03
-34.90
-61.00
-79.72
-90.23
-92.66
-87.74
-76.31
-59.51
-38.93
-16.36
5.80
25.38
40.67
50.93
56.70
59.28
60.35
61.08
61.73
61.60
59.59
54.99
47.85
38.98
29.12
18.33
5.43
-11.38
-33.56
-61.08
-91.91
-122.84
-150.67
-173.57
-191.25
-204.74
-215.25
-223.52
-229.87
-234.26
-236.84
-237.76
-237.07
-234.48
-229.70
-222.86
-214.70
-206.46
-199.15
-193.12
-187.78
-181.89
-174.26
-164.13
-151.61
-137.39
-122.36
-107.35
-93.22
-80.34
-68.85
-58.33
-47.79
-35.78
-20.62
-1.51
21.38
46.19
69.92
89.53
103.04
110.37
113.12
113.72
114.14
115.22
116.61
117.37
116.69
114.24
110.25
105.35
100.35
95.93
92.43
89.43
85.88
80.22
71.18
58.73
44.16
29.87
18.24
10.57
6.81
6.11
7.40
10.18
14.59
20.81
28.49
36.67
44.08
49.93
54.12
56.85
58.11
57.14
52.62
43.50
29.91
13.67
-2.13
-14.23
-20.47
-20.68
-16.44
-10.14
-3.86
1.52
6.29
11.56
18.38
27.49
39.48
54.73
73.79
96.96
123.39
150.82
176.17
196.99
212.60
224.44
234.89
245.58
256.22
264.66
268.19
265.40
257.16
246.27
236.02
228.48
223.75
220.20
215.33
206.76
192.84
173.28
148.77
121.07
92.02
63.06
34.63
6.46
-21.83
-50.32
-78.24
-104.43
-127.92
-148.28
-165.70
-180.22
-191.60
-199.36
-203.25
-204.00
-203.16
-202.58
-203.53
-206.11
-209.49
-212.85
-215.71
-218.23
-220.50
-222.16
-222.19
-219.65
-214.48
-207.46
-200.01
-193.05
-186.55
-179.69
-171.39
-161.22
-149.43
-136.69
-123.42
-109.60
-95.05
-79.84
-64.83
-51.05
-39.20
-29.02
-19.17
-8.13
4.90
19.18
32.59
42.40
46.85
45.90
41.26
35.23
29.87
26.29
25.08
26.69
31.22
38.32
46.35
52.49
53.81
48.69
38.29
26.01
16.03
11.28
12.24
17.10
22.80
27.21
29.34
29.55
28.62
26.82
23.77
18.65
10.67
-0.44
-13.78
-28.04
-41.87
-54.55
-66.04
-77.04
-88.03
-98.73
-107.93
-113.66
-114.54
-110.29
-101.92
-91.32
-80.47
-70.69
-62.52
-55.87
-50.23
-45.00
-39.52
-33.13
-25.63
-17.29
-8.80
-1.23
4.31
7.14
7.16
4.97
1.69
-1.61
-4.22
-5.96
-7.20
-8.87
-11.81
-16.55
-23.11
-30.90
-38.95
-46.29
-52.14
-56.09
-58.30
-59.21
-59.56
-59.68
-59.31
-57.75
-54.09
-47.87
-39.05
-28.00
-15.00
-0.64
14.12
27.97
39.11
46.34
49.47
49.71
48.92
48.92
50.34
52.68
54.89
56.14
56.56
57.04
58.53
61.29
65.09
69.32
73.52
77.56
81.28
84.69
87.73
90.73
94.57
100.47
109.52
121.79
135.93
149.08
157.79
158.97
151.07
134.59
111.82
86.21
61.25
39.75
23.23
11.99
5.39
2.43
2.15
3.35
4.81
5.10
3.29
-0.90
-6.69
-12.69
-18.00
-22.59
-27.65
-34.41
-43.16
-52.45
-59.64
-62.31
-59.39
-52.06
-42.71
-33.75
-26.14
-19.18
-11.28
-1.51
9.46
19.50
26.21
28.17
25.59
19.96
12.96
5.61
-1.73
-9.10
-15.94
-21.30
-24.13
-24.22
-22.65
-21.41
-22.52
-26.57
-32.70
-38.81
-42.60
-42.50
-37.94
-29.31
-17.46
-3.72
10.48
23.56
34.20
41.70
46.38
49.39
52.49
57.09
63.69
71.64
79.09
83.80
84.09
79.23
69.80
57.33
43.79
31.09
20.81
14.55
13.86
19.87
32.48
49.83
68.37
83.99
93.90
98.04
99.46
102.94
112.64
130.28
154.34
181.10
206.66
228.72
247.35
264.07
280.43
296.56
310.76
320.38
322.85
316.69
302.21
280.88
254.70
225.48
194.57
162.90
131.18
100.23
71.00
44.43
21.21
1.53
-15.09
-29.74
-44.05
-59.80
-78.62
-101.86
-130.60
-165.21
-204.83
-247.05
-287.69
-321.88
-345.59
-356.91
-356.84
-348.45
-335.66
-321.64
-308.26
-296.02
-284.86
-274.69
-265.44
-256.89
-248.21
-238.28
-226.22
-211.99
-196.43
-181.01
-166.99
-154.72
-143.78
-133.13
-122.00
-110.04
-97.58
-85.06
-73.02
-61.95
-52.05
-43.69
-37.22
-33.14
-31.83
-33.53
-38.03
-44.41
-51.36
-57.20
-60.81
-61.60
-59.79
-56.17
-51.81
-47.70
-44.61
-43.14
-43.59
-45.60
-47.45
-46.49
-39.80
-25.43
-4.01
21.47
46.63
67.50
81.76
89.21
91.35
90.14
87.43
84.34
81.21
77.70
73.32
67.55
60.16
51.59
42.53
33.72
25.32
16.86
7.75
-2.17
-12.20
-21.14
-27.88
-32.20
-34.69
-36.23
-37.05
-36.58
-33.85
-27.97
-18.98
-7.74
4.29
15.60
25.08
31.90
35.68
36.24
33.91
29.50
24.32
19.85
17.22
16.75
17.70
18.89
19.08
17.55
14.46
10.87
8.32
8.05
10.71
15.84
22.10
27.77
31.80
34.12
36.06
39.54
46.25
56.80
70.44
85.53
100.00
112.15
121.05
126.56
129.21
129.94
130.13
131.16
134.38
140.45
149.56
161.32
174.87
189.29
203.44
216.12
225.90
231.62
232.58
228.47
219.24
204.79
185.07
160.18
130.98
98.90
66.28
35.64
9.08
-12.21
-28.58
-41.38
-52.72
-64.35
-77.18
-91.16
-105.58
-119.86
-133.96
-148.48
-163.95
-180.26
-196.04
-209.71
-220.05
-226.80
-230.77
-232.80
-232.99
-230.34
-223.62
-212.20
-196.96
-179.88
-162.88
-146.80
-131.08
-114.47
-96.04
-76.09
-55.82
-36.45
-18.58
-1.91
13.96
28.89
41.89
51.76
57.76
60.36
61.00
61.19
61.61
61.82
61.13
59.21
56.51
54.08
52.63
51.83
50.52
47.28
41.54
33.78
25.28
17.11
9.41
1.31
-8.64
-21.14
-35.58
-50.14
-62.60
-71.49
-76.76
-79.69
-82.17
-85.68
-90.55
-95.83
-100.09
-102.34
-102.40
-101.12
-99.71
-99.31
-100.33
-102.15
-103.62
-103.65
-102.00
-99.73
-98.71
-100.95
-107.23
-116.57
-126.35
-133.52
-135.54
-131.39
-121.52
-107.13
-89.32
-68.68
-45.72
-21.39
2.40
23.49
40.35
52.78
61.88
69.35
76.69
84.27
91.81
98.79
105.16
111.73
119.57
129.30
140.33
151.38
160.62
167.00
170.44
171.72
171.64
170.62
168.89
166.67
164.50
162.52
160.14
155.57
146.46
131.23
110.08
85.67
61.81
42.23
28.55
20.13
15.01
11.30
8.25
6.14
5.25
5.23
4.94
3.28
0.44
-1.98
-1.58
3.54
13.28
25.44
36.37
42.78
43.19
38.48
31.31
24.71
20.78
19.94
21.41
24.03
27.19
30.88
35.25
39.86
43.35
43.98
40.46
32.77
22.31
11.15
0.75
-8.74
-18.67
-30.70
-45.72
-63.34
-81.95
-99.70
-114.89
-126.41
-133.43
-135.44
-132.44
-125.08
-114.80
-103.48
-93.11
-84.91
-78.95
-74.15
-68.69
-60.91
-49.76
-35.14
-17.85
0.30
17.10
30.36
38.62
41.65
40.17
35.79
30.20
24.97
21.18
19.52
20.18
22.53
25.21
26.71
26.01
23.27
19.63
16.58
14.67
12.76
8.67
0.69
-10.78
-22.98
-31.94
-34.96
-32.19
-26.61
-21.98
-20.55
-21.59
-21.99
-18.62
-10.30
1.30
12.71
20.47
23.10
21.24
16.87
11.88
6.80
1.03
-6.40
-15.84
-26.45
-36.69
-45.19
-51.54
-56.20
-60.05
-63.70
-66.63
-67.41
-64.32
-56.49
-44.44
-30.06
-15.58
-2.83
7.71
16.52
24.49
32.12
39.39
46.03
51.92
57.64
64.26
72.82
83.71
96.32
109.29
121.12
130.72
137.33
140.26
138.95
132.97
122.17
106.95
88.20
67.30
45.94
26.34
10.80
1.18
-1.75
0.90
6.22
10.07
8.70
0.44
-13.63
-30.32
-46.14
-58.69
-67.43
-73.22
-77.26
-79.99
-81.35
-80.54
-76.83
-69.82
-59.40
-45.88
-30.17
-14.26
-1.10
6.36
6.86
2.05
-3.18
-2.67
8.41
31.61
63.97
99.75
132.35
156.44
169.11
169.54
158.81
139.55
115.76
92.25
73.75
63.05
59.72
59.87
57.34
46.26
22.60
-14.48
-62.95
-118.92
-177.82
-235.15
-286.83
-329.17
-359.12
-374.82
-375.97
-363.92
-341.06
-310.18
-273.51
-232.12
-186.64
-137.70
-86.71
-35.94
11.83
53.95
88.52
114.79
133.22
145.26
153.30
159.72
166.18
173.14
179.34
182.74
181.39
174.19
161.12
143.06
121.32
97.59
73.74
51.90
33.86
20.51
11.05
3.40
-4.57
-13.70
-22.71
-28.59
-28.39
-21.09
-8.42
6.03
18.41
26.32
29.44
29.17
27.24
24.61
21.43
17.60
13.38
10.10
9.56
13.12
21.00
31.55
41.50
46.91
44.57
33.22
14.14
-9.04
-31.71
-49.66
-60.91
-65.95
-67.02
-66.68
-66.14
-64.90
-61.36
-54.37
-44.53
-34.21
-26.54
-23.70
-25.75
-30.18
-33.28
-31.63
-23.52
-9.28
9.29
30.01
51.26
72.03
91.93
110.82
128.85
146.58
165.13
185.62
208.24
231.61
252.36
266.12
268.84
258.49
235.71
203.54
166.24
127.79
90.71
55.90
22.97
-9.30
-42.38
-77.98
-117.60
-161.74
-209.36
-257.31
-300.86
-334.80
-355.04
-359.72
-349.72
-328.18
-299.39
-267.84
-237.31
-210.44
-188.50
-171.38
-158.01
-147.12
-137.71
-129.61
-123.21
-118.72
-115.52
-111.77
-105.25
-94.24
-78.66
-60.17
-41.32
-24.46
-10.66
0.04
8.30
14.64
19.28
22.41
24.63
26.81
29.77
33.83
38.48
42.57
44.89
44.73
42.15
37.89
32.91
28.25
24.96
23.68
24.84
28.36
33.62
39.76
45.89
51.66
57.17
63.09
70.55
80.70
94.40
111.68
131.48
151.54
169.22
182.29
189.66
191.60
189.48
184.98
179.26
172.72
164.67
153.99
139.57
120.84
97.85
71.21
41.78
10.55
-21.00
-50.90
-76.72
-96.08
-107.73
-112.18
-111.78
-109.91
-109.59
-112.16
-116.84
-121.48
-123.86
-122.66
-117.72
-109.52
-98.54
-84.94
-68.83
-50.60
-31.18
-11.87
5.49
18.48
24.03
18.83
0.70
-30.10
-69.97
-112.38
-149.73
-175.87
-188.10
-187.59
-178.45
-165.32
-151.62
-138.84
-126.75
-114.63
-102.12
-89.50
-77.18
-65.35
-53.93
-42.63
-31.65
-21.72
-13.83
-8.36
-4.53
-0.09
7.65
20.55
38.94
61.51
86.19
111.12
135.19
157.94
179.09
198.21
214.72
228.14
238.28
245.53
250.47
253.90
256.46
258.32
259.04
257.26
250.99
238.15
217.68
190.31
158.48
125.46
93.93
65.29
39.65
16.80
-2.95
-18.49
-28.31
-31.48
-28.04
-18.79
-4.68
13.74
36.19
61.85
88.42
112.05
127.95
131.92
121.76
97.95
62.99
20.26
-27.31
-77.84
-129.65
-180.54
-226.88
-264.17
-288.66
-298.88
-296.53
-285.69
-271.04
-256.12
-242.57
-230.64
-220.22
-211.43
-204.68
-200.08
-197.08
-194.61
-191.52
-187.04
-180.52
-171.30
-158.65
-141.93
-121.29
-97.98
-74.18
-52.05
-32.83
-16.44
-1.73
12.63
27.51
42.75
57.58
70.92
81.76
89.46
93.55
94.05
91.47
86.94
82.04
78.50
77.55
79.51
83.78
89.05
94.18
98.46
101.77
104.05
105.17
104.90
103.08
100.42
98.31
98.49
102.14
109.29
119.08
130.15
141.36
151.90
161.08
167.84
170.86
168.99
162.12
152.00
141.63
134.54
133.09
137.35
144.60
150.28
149.46
138.40
115.81
82.77
42.27
-2.05
-46.61
-88.57
-125.46
-155.16
-176.18
-187.91
-191.20
-188.40
-182.65
-176.77
-172.16
-168.53
-164.05
-156.59
-144.82
-128.90
-110.39
-91.55
-74.37
-59.95
-48.41
-39.22
-31.69
-25.27
-19.66
-14.57
-9.55
-4.08
2.35
9.83
17.96
25.91
32.63
37.32
40.06
41.85
44.22
48.74
56.07
65.26
73.92
78.91
77.45
68.21
51.75
30.32
7.06
-14.86
-33.06
-46.31
-54.40
-58.19
-58.96
-57.90
-55.71
-52.39
-47.22
-39.45
-28.73
-15.48
-1.00
12.98
24.80
33.76
40.30
45.93
52.46
61.03
71.22
80.98
87.47
87.98
81.36
68.53
52.17
35.88
22.77
14.74
11.97
13.42
17.22
21.25
23.93
24.36
22.40
18.78
14.46
10.14
6.25
2.75
-0.58
-3.99
-7.68
-11.91
-16.83
-22.23
-27.55
-31.90
-34.52
-35.39
-35.40
-36.24
-39.51
-45.80
-54.21
-62.50
-68.15
-69.28
-65.69
-58.70
-50.78
-44.82
-43.37
-48.35
-60.51
-79.13
-102.11
-125.97
-146.42
-159.37
-161.82
-152.96
-134.18
-108.78
-80.55
-52.80
-27.47
-5.30
13.70
29.34
41.17
48.67
51.94
52.14
51.29
51.46
53.86
58.34
63.76
68.96
73.63
78.56
85.10
94.39
106.75
121.45
137.06
151.84
164.27
173.12
177.54
177.11
172.00
163.14
152.45
142.56
136.11
134.42
137.13
141.74
144.89
143.60
136.44
123.44
105.65
84.43
60.94
36.29
11.70
-11.93
-34.44
-56.61
-79.85
-104.76
-130.45
-154.52
-174.29
-188.54
-197.70
-203.13
-205.54
-204.42
-198.55
-187.68
-173.63
-159.98
-150.28
-146.10
-146.13
-147.36
-146.73
-142.85
-136.20
-128.07
-119.13
-108.81
-95.58
-78.17
-56.43
-31.51
-5.32
20.01
42.75
61.71
75.86
84.64
88.14
87.51
85.09
83.34
83.94
87.06
91.54
95.84
98.99
101.16
103.21
105.94
109.31
112.55
114.68
115.31
114.97
114.80
115.79
118.09
121.10
123.87
125.56
125.29
121.98
114.14
100.21
79.16
51.55
20.02
-11.37
-38.48
-58.81
-72.47
-81.73
-89.52
-97.79
-106.53
-114.24
-119.15
-120.57
-119.17
-116.50
-113.84
-111.45
-108.38
-103.54
-96.47
-88.13
-80.36
-74.86
-72.38
-72.17
-72.42
-71.17
-67.22
-59.92
-49.28
-35.37
-18.41
0.60
19.66
35.80
46.15
49.18
45.38
36.75
25.88
14.63
3.80
-6.33
-15.29
-21.97
-25.19
-24.46
-20.94
-16.89
-14.92
-16.41
-20.65
-25.00
-26.20
-22.09
-12.96
-1.46
8.85
15.15
16.40
13.76
9.15
3.96
-1.48
-7.75
-15.03
-22.12
-26.72
-26.55
-20.82
-11.19
-0.92
6.99
11.25
12.75
13.83
16.71
22.02
29.04
36.00
41.61
45.53
48.55
51.59
55.11
58.77
61.53
62.73
62.43
61.38
60.61
60.63
61.37
62.96
65.62
70.21
77.14
85.58
93.68
98.90
99.77
96.77
92.51
90.41
93.23
102.10
116.26
134.51
156.04
180.39
206.86
233.35
256.11
270.70
273.80
264.19
243.19
214.15
180.88
146.29
111.76
77.18
42.04
6.44
-28.35
-59.90
-86.22
-106.55
-121.92
-134.43
-145.37
-154.27
-159.01
-157.48
-149.47
-137.71
-126.81
-121.10
-122.72
-130.57
-141.38
-151.24
-157.14
-157.47
-152.22
-142.51
-130.42
-118.42
-108.76
-102.15
-97.11
-90.49
-79.04
-61.28
-38.06
-11.99
14.26
39.72
64.63
89.29
112.26
129.68
136.10
127.40
102.89
66.37
24.99
-13.66
-44.33
-65.62
-79.58
-89.81
-99.05
-107.83
-114.51
-116.25
-111.28
-100.11
-86.01
-73.58
-66.55
-65.83
-68.92
-71.25
-68.55
-59.13
-44.88
-30.42
-20.72
-19.01
-25.56
-38.32
-54.35
-70.84
-86.09
-98.96
-108.65
-114.33
-115.53
-112.23
-105.18
-95.90
-85.84
-76.71
-69.51
-64.63
-61.86
-60.53
-59.65
-57.94
-54.43
-48.70
-41.13
-32.91
-25.46
-19.98
-17.09
-16.37
-16.85
-17.35
-16.98
-15.65
-14.09
-13.33
-14.46
-17.70
-22.26
-26.62
-29.41
-30.38
-30.78
-32.84
-38.63
-48.67
-61.13
-72.78
-80.19
-81.72
-78.10
-71.56
-64.65
-58.47
-52.54
-45.30
-35.57
-23.34
-9.78
3.64
15.97
27.41
38.20
48.28
56.54
61.39
61.86
58.56
53.41
48.83
46.72
47.61
50.98
55.59
60.37
64.50
67.75
70.14
71.82
72.89
73.40
73.17
71.59
67.84
61.39
52.58
42.84
34.47
29.56
28.94
31.88
36.25
39.53
40.18
38.29
35.57
34.77
38.11
46.37
58.50
71.93
83.72
91.74
95.22
94.69
91.67
87.99
85.00
83.40
83.17
84.02
85.64
87.90
90.80
94.21
97.38
99.21
98.32
93.81
85.34
73.79
60.97
49.35
41.26
37.44
36.76
36.24
32.34
22.86
8.15
-8.78
-23.75
-33.52
-37.85
-39.40
-42.27
-49.38
-60.58
-72.55
-80.52
-81.03
-73.74
-61.29
-47.59
-35.71
-26.40
-18.11
-8.77
2.79
16.19
29.89
42.19
52.78
62.22
71.55
81.31
90.82
99.10
105.48
110.42
115.37
121.97
131.04
141.79
152.32
159.86
162.10
157.81
147.12
131.28
111.83
90.29
67.90
46.05
26.02
8.64
-6.56
-21.99
-41.03
-66.65
-99.46
-137.08
-174.74
-207.85
-233.28
-250.66
-261.30
-266.61
-267.46
-263.83
-255.68
-243.28
-227.57
-209.17
-188.24
-164.93
-139.52
-113.33
-88.57
-67.47
-51.36
-40.15
-32.52
-26.43
-20.34
-13.47
-6.38
-0.47
2.67
2.31
-0.87
-5.11
-8.43
-9.79
-9.04
-6.96
-4.17
-0.89
3.07
7.63
11.95
14.59
14.23
10.86
5.91
1.66
0.20
2.07
6.45
11.97
17.51
22.87
28.54
34.91
41.63
47.75
51.95
53.27
51.77
48.64
45.53
43.59
42.88
42.25
40.24
36.02
29.96
23.60
18.87
17.11
18.51
22.18
26.70
30.90
34.27
36.92
39.47
42.56
46.68
52.15
59.08
67.58
77.90
90.38
105.40
123.11
142.66
162.35
179.78
192.64
199.76
201.28
198.57
193.28
186.84
180.15
173.98
168.96
165.39
162.75
159.20
151.88
137.77
115.19
84.78
49.60
14.51
-15.54
-37.06
-49.10
-53.75
-55.18
-58.14
-66.13
-79.90
-97.18
-113.96
-126.24
-132.20
-132.60
-130.17
-128.03
-128.15
-130.93
-135.37
-140.07
-143.85
-146.21
-146.90
-145.81
-142.55
-136.48
-127.26
-115.07
-101.04
-87.13
-75.70
-68.93
-67.92
-72.09
-79.33
-86.87
-92.53
-95.84
-97.98
-101.07
-106.51
-114.15
-122.19
-128.04
-129.72
-126.82
-120.92
-114.80
-110.90
-110.20
-111.61
-112.71
-111.25
-106.34
-99.11
-92.07
-87.89
-87.67
-90.51
-93.82
-94.82
-92.03
-85.72
-77.48
-68.97
-61.04
-53.40
-45.57
-37.50
-29.94
-24.05
-20.67
-19.77
-20.36
-21.26
-21.44
-20.35
-17.78
-13.15
-5.63
5.36
19.60
35.28
49.79
60.80
67.36
70.34
72.05
74.72
79.59
86.19
92.65
96.81
96.88
92.25
83.55
72.63
61.78
53.10
47.49
44.26
41.71
37.80
31.63
23.72
16.00
10.26
7.49
7.42
8.82
10.73
12.83
15.73
20.58
28.11
38.28
49.79
60.35
67.23
68.18
62.75
52.93
42.61
36.17
36.33
42.57
51.69
59.35
62.48
60.89
56.90
53.72
53.58
57.04
63.15
70.23
76.29
79.06
75.82
64.35
44.19
17.87
-9.33
-31.58
-45.09
-49.93
-49.93
-50.03
-53.92
-61.96
-71.97
-81.00
-87.09
-90.10
-91.21
-91.50
-91.17
-90.00
-87.85
-85.49
-84.28
-85.34
-88.33
-91.50
-92.60
-89.99
-83.47
-74.23
-64.07
-54.48
-46.22
-39.21
-32.71
-25.68
-16.78
-5.14
9.60
26.96
45.33
62.98
78.60
91.99
103.37
112.96
120.14
124.13
124.84
123.55
122.67
124.49
129.88
137.68
145.58
151.13
153.01
151.36
146.92
140.61
132.70
123.13
112.15
100.69
90.28
82.52
78.46
78.24
81.62
87.53
94.50
100.59
103.61
101.77
94.38
82.32
67.70
53.62
42.53
35.87
33.19
32.76
32.09
28.81
21.30
8.84
-8.34
-29.02
-51.07
-71.64
-88.11
-99.25
-105.82
-110.49
-116.49
-125.90
-138.81
-152.77
-163.89
-168.35
-163.87
-150.41
-129.73
-104.71
-78.39
-53.73
-33.28
-18.93
-11.55
-10.43
-13.83
-19.34
-25.12
-30.07
-34.03
-37.12
-39.45
-40.92
-41.14
-39.86
-37.28
-34.14
-31.30
-29.77
-29.73
-30.77
-31.76
-30.83
-26.29
-17.01
-3.30
13.13
29.63
43.58
53.37
58.58
59.60
56.90
50.81
41.71
30.70
19.83
11.64
8.20
10.15
16.21
23.21
27.44
26.10
18.34
6.03
-7.12
-17.05
-21.08
-18.57
-11.49
-3.14
3.20
5.53
3.81
-0.54
-5.49
-9.38
-11.14
-10.49
-7.62
-3.24
1.68
5.97
8.74
9.70
9.27
8.48
8.08
8.17
8.04
6.35
2.09
-4.46
-11.93
-17.95
-20.44
-18.36
-11.84
-1.69
10.71
23.84
35.80
44.29
47.35
44.06
35.53
24.69
15.40
10.66
11.62
17.52
26.71
37.64
49.56
62.18
75.26
88.13
99.94
109.91
117.37
121.48
121.30
115.42
102.24
81.01
52.23
18.31
-16.64
-47.63
-69.95
-81.06
-81.41
-74.29
-64.41
-55.95
-50.91
-48.43
-46.27
-42.45
-35.76
-25.43
-10.18
12.14
42.91
80.70
120.87
157.05
184.41
202.21
213.84
223.93
234.68
244.01
247.43
241.87
229.15
215.63
208.64
211.85
222.19
231.41
230.77
215.90
189.62
160.29
137.14
125.19
123.01
124.44
122.41
113.12
97.37
78.80
60.07
41.08
19.14
-8.71
-42.91
-80.83
-118.90
-155.85
-193.91
-237.38
-288.74
-345.19
-398.49
-438.50
-458.07
-456.74
-440.41
-417.38
-394.33
-373.25
-352.53
-330.04
-305.64
-281.88
-261.99
-247.15
-234.93
-220.48
-199.47
-170.49
-136.28
-101.88
-72.51
-51.16
-38.01
-30.71
-26.07
-21.66
-16.35
-10.76
-6.55
-5.11
-6.89
-11.02
-15.87
-19.64
-21.07
-19.61
-15.33
-9.07
-2.24
3.18
5.15
2.30
-4.76
-13.39
-19.78
-20.76
-15.31
-5.08
6.69
17.09
24.43
28.93
31.97
35.52
40.71
47.79
55.75
62.42
65.32
62.72
54.67
43.35
32.27
24.44
21.19
21.80
23.92
25.15
23.96
19.91
13.43
5.21
-3.86
-12.77
-20.01
-24.21
-24.08
-19.28
-10.13
2.37
17.03
32.54
47.16
59.01
66.11
67.92
65.56
61.65
58.97
58.83
60.31
60.46
56.16
45.83
30.95
15.43
3.96
-0.13
3.06
10.46
17.10
18.79
13.87
3.73
-8.54
-19.10
-24.53
-22.63
-12.41
4.88
25.51
43.29
51.56
45.32
23.50
-9.96
-47.31
-79.19
-97.70
-97.93
-79.23
-45.11
-1.64
43.93
85.78
120.45
148.04
170.88
191.58
211.29
229.16
243.77
254.99
264.94
277.22
295.19
319.22
346.10
369.91
384.03
383.54
367.07
336.67
296.26
250.35
202.55
155.27
110.24
70.05
38.33
18.68
13.39
21.38
37.34
53.09
60.57
55.22
37.72
13.68
-9.80
-28.13
-41.67
-54.94
-73.56
-99.65
-130.59
-160.16
-182.83
-197.38
-208.23
-222.39
-245.24
-277.36
-313.51
-345.89
-368.04
-377.96
-378.59
-375.26
-372.22
-369.66
-364.17
-351.26
-328.96
-299.68
-268.74
-241.55
-220.10
-202.20
-183.75
-161.82
-137.30
-114.47
-98.14
-90.34
-89.09
-89.34
-86.02
-76.31
-60.72
-41.62
-22.03
-4.04
11.26
23.41
32.19
37.24
37.92
33.93
25.52
13.82
0.90
-10.63
-18.46
-21.16
-18.37
-11.13
-1.39
8.44
15.87
18.94
16.41
8.75
-2.23
-13.45
-21.39
-23.40
-18.37
-7.32
6.91
20.58
30.32
34.39
33.09
28.38
22.84
18.60
16.27
15.06
13.50
10.65
6.37
1.51
-3.18
-7.85
-13.45
-21.17
-31.41
-43.21
-54.69
-63.95
-69.77
-71.73
-70.15
-65.12
-56.64
-44.82
-30.34
-14.78
-0.31
11.26
19.13
23.66
26.03
27.56
29.40
31.97
35.17
38.59
41.44
42.87
42.38
40.48
38.30
37.48
39.18
43.28
48.18
51.59
51.41
46.51
36.88
23.41
7.86
-7.57
-20.03
-26.53
-24.84
-14.58
2.49
23.17
44.20
63.48
80.16
93.82
103.31
106.59
101.98
89.63
72.48
55.69
44.26
40.80
44.29
50.97
56.29
57.12
52.87
44.94
35.29
25.38
15.75
6.60
-1.80
-8.58
-12.49
-12.57
-8.78
-1.97
6.39
14.78
21.95
26.73
28.41
26.43
20.72
11.96
1.32
-9.50
-18.88
-25.75
-29.62
-30.68
-29.99
-28.97
-29.09
-31.36
-35.62
-40.72
-44.98
-47.19
-47.20
-45.80
-43.90
-41.23
-36.42
-27.22
-12.36
7.75
30.66
52.99
71.80
86.13
97.04
106.00
114.09
120.83
124.85
125.32
122.50
118.32
115.03
113.75
114.12
114.93
115.16
114.74
114.33
114.20
113.72
111.37
105.65
96.12
83.91
71.14
59.57
50.25
43.16
38.19
35.40
35.04
36.92
39.86
41.63
39.85
33.61
23.33
10.93
-1.33
-11.78
-19.78
-26.11
-31.63
-36.84
-41.39
-44.58
-46.00
-46.33
-47.15
-50.37
-57.29
-67.31
-78.20
-86.62
-89.67
-86.37
-77.97
-67.41
-57.56
-49.73
-42.91
-34.76
-23.02
-7.16
11.16
28.91
43.11
52.62
58.35
62.69
67.82
74.66
82.59
89.74
94.22
95.01
92.41
87.80
83.15
79.75
78.03
77.40
76.72
75.08
72.16
68.44
64.67
61.58
59.34
57.65
55.84
53.61
51.26
49.68
50.14
53.75
60.94
71.29
83.98
97.98
112.49
126.98
140.87
153.37
163.32
169.29
170.20
165.72
156.37
143.26
127.52
109.49
88.64
63.91
34.45
0.29
-37.30
-76.19
-114.46
-150.79
-184.83
-216.62
-246.30
-273.57
-297.99
-319.10
-336.80
-350.97
-361.09
-366.01
-364.14
-354.24
-336.10
-310.84
-280.75
-248.54
-216.42
-185.68
-156.33
-127.56
-98.53
-68.86
-38.65
-8.80
19.39
44.74
66.48
84.43
99.19
112.06
124.57
138.08
153.08
168.99
184.59
198.45
209.55
217.55
222.71
225.09
224.53
220.71
213.39
202.93
190.09
175.72
160.54
145.07
129.81
115.18
101.58
88.95
76.70
63.22
46.82
25.89
-0.46
-32.55
-69.65
-110.49
-153.44
-196.46
-237.09
-272.24
-298.90
-314.87
-319.92
-315.63
-304.71
-289.95
-273.08
-254.61
-234.42
-212.64
-190.06
-168.22
-148.69
-132.49
-119.83
-110.38
-103.32
-97.67
-92.16
-85.27
-75.45
-61.92
-45.15
-26.90
-9.50
4.69
14.37
19.51
21.35
21.70
22.09
23.24
24.99
27.06
29.53
32.96
37.82
43.71
48.77
50.31
46.26
36.11
21.88
7.03
-4.86
-11.37
-11.74
-6.76
2.01
12.70
23.11
31.33
35.84
36.29
33.72
29.94
26.61
24.31
22.88
21.81
21.27
21.81
24.08
27.94
32.19
35.10
35.63
34.13
31.92
30.38
29.98
30.31
31.32
34.08
41.17
55.46
78.14
107.61
139.54
168.57
190.82
205.18
213.18
218.10
222.73
228.26
233.90
237.66
237.61
233.18
225.62
217.52
212.07
211.34
215.77
224.36
235.32
246.75
256.83
263.52
264.40
256.76
238.42
208.98
170.63
127.84
85.85
48.34
16.22
-12.27
-40.69
-72.83
-111.00
-154.97
-201.73
-246.31
-283.38
-308.60
-319.40
-316.08
-301.82
-281.50
-260.19
-240.82
-223.25
-205.93
-186.25
-161.95
-132.92
-102.02
-73.77
-53.09
-42.65
-41.97
-49.92
-63.46
-77.59
-86.92
-88.09
-80.69
-68.95
-58.33
-53.19
-58.04
-73.30
-94.41
-114.67
-129.83
-138.44
-143.51
-147.34
-150.31
-155.79
-166.31
-182.03
-201.28
-222.75
-244.62
-267.38
-290.26
-283.48
-231.79
-144.52
-48.01
35.64
87.94
117.46
130.46
130.68
120.27
99.91
69.16
30.58
-10.65
-50.13
-84.36
-114.46
-142.37
-169.89
-201.24
-237.76
-274.19
-299.71
-302.82
-275.09
-216.69
-134.07
-37.53
60.35
150.13
228.84
298.81
363.86
427.26
489.59
551.20
612.99
674.73
734.22
786.80
825.39
842.14
831.62
793.05
731.70
656.98
578.65
503.86
436.14
376.03
322.55
274.77
232.25
194.94
162.64
134.72
110.16
88.22
68.75
52.00
38.36
27.81
19.67
12.68
5.43
-3.27
-13.86
-26.04
-38.96
-51.79
-64.08
-75.96
-88.06
-101.01
-115.39
-131.21
-148.12
-165.60
-183.28
-201.27
-220.06
-240.60
-263.50
-289.13
-316.96
-345.52
-372.73
-396.71
-416.55
-432.74
-446.66
-459.64
-472.32
-484.00
-492.88
-496.16
-490.75
-473.72
-443.10
-398.33
-340.96
-274.40
-203.32
-132.38
-65.26
-3.77
51.68
101.37
145.39
183.28
214.35
238.28
255.43
266.46
272.33
273.76
271.14
264.72
255.01
243.02
230.29
218.42
208.50
200.79
194.51
188.38
181.06
172.08
161.60
150.55
139.74
129.70
120.37
111.19
101.47
90.93
79.88
69.07
59.50
52.23
46.84
43.34
42.38
44.36
48.39
52.44
54.28
52.54
47.23
38.22
26.61
14.46
3.74
-4.71
-10.90
-15.04
-17.10
-17.02
-18.34
-23.32
-31.50
-40.85
-49.99
-58.37
-65.69
-71.53
-75.43
-86.23
-108.67
-139.38
-170.99
-198.70
-221.29
-239.05
-252.31
-261.30
-284.66
-332.07
-396.18
-461.22
-516.83
-560.37
-592.77
-615.35
-629.51
-665.51
-739.06
-838.43
-938.08
-1021.43
-1085.20
-1132.74
-1168.17
-1194.09
-1248.26
-1347.19
-1471.30
-1585.06
-1668.78
-1724.35
-1764.98
-1804.94
-1617.97
-1135.75
-489.86
119.96
591.12
919.98
1138.34
1278.10
1364.26
1416.50
1413.17
1347.78
1244.40
1140.04
1056.15
996.74
958.69
938.94
934.61
912.45
852.20
760.92
661.79
573.12
503.93
457.90
435.74
434.69
429.86
404.20
359.27
308.96
265.14
233.62
214.84
206.37
203.93
194.16
170.35
136.52
102.38
74.93
55.77
42.81
32.97
24.48
13.21
-2.32
-20.59
-38.73
-54.28
-65.32
-70.19
-67.59
-57.76
-43.86
-29.06
-17.18
-10.02
-6.46
-3.54
1.77
10.79
22.38
33.34
40.40
40.93
34.62
23.52
11.07
1.10
-3.37
-1.49
5.44
14.78
23.47
29.24
31.28
30.18
27.15
23.68
20.24
16.56
12.17
6.72
0.86
-4.04
-6.32
-5.00
-0.65
4.67
8.32
8.40
4.61
-1.89
-9.28
-16.45
-23.28
-30.41
-38.47
-47.30
-56.11
-64.43
-72.95
-83.31
-97.29
-115.47
-136.55
-157.54
-174.83
-185.68
-188.20
-182.28
-169.42
-151.91
-132.05
-112.03
-93.65
-78.58
-67.99
-62.52
-62.23
-66.34
-73.64
-82.70
-92.32
-101.72
-110.45
-118.36
-125.33
-131.27
-135.91
-138.84
-139.61
-138.00
-134.11
-128.33
-121.32
-113.76
-106.20
-98.98
-92.19
-85.78
-79.66
-73.88
-68.54
-63.78
-59.67
-56.18
-53.17
-50.34
-47.39
-44.12
-40.53
-36.71
-32.81
-28.89
-24.81
-20.31
-15.00
-8.69
-1.42
6.50
14.57
22.20
29.08
35.24
41.13
47.29
54.21
61.90
69.90
77.52
84.16
89.61
94.59
100.35
108.39
119.82
134.93
153.05
172.94
193.31
213.55
233.91
255.41
279.54
307.65
340.79
379.26
422.11
466.62
508.19
541.31
561.13
565.43
555.56
535.50
510.09
482.46
452.79
418.97
378.74
331.46
279.08
225.91
177.07
137.22
109.23
93.49
87.28
85.73
82.52
72.32
51.99
21.81
-15.87
-58.53
-104.52
-153.52
-204.86
-256.50
-305.00
-346.55
-378.19
-398.60
-407.50
-404.97
-390.72
-364.89
-329.01
-286.86
-244.04
-205.62
-174.83
-152.28
-136.15
-123.46
-111.52
-98.15
-82.39
-64.14
-42.33
-16.32
12.95
43.24
71.62
94.82
112.10
123.99
132.11
141.83
157.17
178.60
202.93
225.78
242.81
255.01
265.98
279.75
304.99
346.76
403.92
469.52
534.60
589.35
630.61
657.25
668.88
673.11
676.80
682.67
688.71
690.80
682.63
665.00
640.31
565.82
423.06
223.80
6.17
-189.05
-319.83
-399.39
-446.12
-474.71
-495.18
-510.37
-518.99
-522.33
-525.00
-532.28
-550.04
-576.15
-607.02
-640.35
-669.94
-692.23
-708.42
-722.62
-737.53
-753.48
-762.80
-757.29
-732.88
-687.55
-624.69
-552.30
-479.81
-414.23
-359.67
-314.46
-275.95
-242.68
-212.37
-183.23
-154.46
-126.43
-99.94
-77.06
-59.07
-47.45
-43.63
-46.97
-55.46
-66.50
-77.62
-85.99
-90.14
-89.40
-83.86
-73.68
-58.00
-35.32
-4.14
35.88
85.42
142.99
204.95
266.41
322.70
371.00
410.33
441.38
465.65
488.51
514.47
544.30
573.97
596.26
603.93
593.45
566.65
529.75
494.95
471.56
462.25
462.85
466.86
470.15
473.25
479.30
462.11
404.87
305.00
178.86
51.83
-55.25
-133.89
-186.29
-220.20
-243.86
-258.97
-265.69
-265.74
-263.54
-263.70
-267.04
-268.85
-262.73
-245.85
-217.66
-184.08
-150.86
-125.07
-110.41
-106.71
-112.05
-124.40
-142.29
-160.22
-171.66
-170.98
-157.99
-138.50
-121.20
-112.76
-113.62
-118.78
-119.96
-111.88
-95.26
-76.27
-61.48
-56.18
-58.92
-61.76
-56.31
-41.41
-24.95
-18.16
-27.41
-49.89
-74.59
-88.96
-85.18
-63.63
-31.99
-0.37
22.84
33.88
34.07
28.67
23.81
23.33
26.00
26.12
17.89
0.22
-21.64
-36.85
-34.22
-8.31
36.43
85.76
121.77
130.49
107.94
60.72
2.95
-50.62
-88.93
-106.75
-108.07
-100.92
-91.57
-81.91
-70.79
-56.29
-38.88
-21.67
-8.81
-3.62
-5.89
-12.37
-18.21
-19.58
-15.16
-6.54
2.85
10.04
13.56
15.08
17.66
23.92
34.55
47.21
58.55
65.00
64.91
58.70
48.32
36.29
25.05
16.84
12.75
12.84
15.04
16.88
16.60
14.33
11.15
9.73
11.59
15.87
19.40
18.31
10.59
-3.19
-20.57
-39.43
-56.63
-68.59
-72.83
-68.87
-58.78
-47.18
-39.76
-39.83
-50.88
-71.86
-96.53
-116.95
-127.16
-125.05
-112.02
-91.29
-61.39
-28.65
-3.06
9.06
7.41
-2.64
-14.98
-23.67
-24.49
-15.90
0.53
20.91
40.73
56.04
64.53
65.94
61.38
52.54
41.40
29.09
17.50
9.01
4.19
1.53
-1.68
-7.94
-17.97
-30.56
-44.23
-57.16
-67.74
-74.68
-76.18
-70.42
-56.62
-36.08
-12.82
7.69
22.16
31.52
40.27
54.18
76.66
107.19
141.74
175.48
204.38
226.18
239.54
242.85
234.86
216.59
192.19
167.88
148.33
133.53
117.94
93.82
55.47
3.61
-54.85
-110.21
-154.91
-186.07
-205.31
-216.44
-222.65
-226.11
-226.61
-223.12
-213.64
-196.05
-168.86
-131.08
-83.52
-28.87
27.89
81.34
126.99
161.71
182.98
189.52
182.72
166.36
146.16
127.12
112.45
102.91
97.20
91.75
83.20
71.07
57.78
46.82
40.55
40.24
45.81
55.57
64.22
64.33
50.56
21.35
-21.31
-73.30
-129.40
-184.22
-220.80
-224.19
-195.04
-148.44
-99.00
-53.34
-12.58
23.56
55.43
83.46
106.35
121.92
130.94
136.36
141.31
147.54
155.17
163.62
172.52
180.28
184.55
185.33
184.23
183.26
183.20
183.99
184.79
184.22
184.85
186.69
190.09
195.21
201.61
207.62
211.25
210.65
204.79
193.16
174.82
149.87
118.87
82.56
41.88
-1.83
-46.61
-90.56
-132.28
-171.50
-208.13
-241.97
-272.21
-298.40
-321.14
-341.94
-362.91
-384.86
-406.69
-424.48
-433.40
-430.29
-415.39
-392.28
-365.44
-337.67
-308.95
-277.38
-241.24
-200.63
-158.01
-117.15
-81.66
-53.85
-34.63
-23.99
-21.22
-25.34
-34.11
-44.25
-52.48
-56.22
-54.49
-48.71
-41.21
-34.16
-28.86
-25.43
-22.89
-19.84
-15.17
-8.50
-0.28
8.57
17.43
25.50
31.62
34.31
32.53
27.13
21.62
21.29
30.96
52.27
82.13
114.34
142.16
161.82
174.41
185.03
199.14
220.01
246.70
274.94
299.73
316.90
324.08
320.44
307.34
287.58
265.99
248.34
239.87
242.89
255.69
272.92
287.93
295.43
293.39
283.30
268.40
251.94
235.61
219.20
201.68
181.96
159.62
135.64
112.18
91.91
76.54
66.46
59.98
54.98
49.58
43.43
37.88
34.70
34.84
37.21
39.09
37.36
30.30
18.24
3.26
-12.08
-26.36
-39.81
-53.73
-69.30
-86.59
-103.58
-117.15
-123.94
-121.51
-109.64
-90.26
-66.87
-43.54
-24.16
-11.96
-9.29
-16.99
-33.84
-56.63
-80.93
-102.47
-120.00
-134.25
-147.59
-162.77
-181.69
-204.27
-228.51
-251.63
-271.18
-287.10
-299.72
-308.94
-314.29
-315.43
-312.37
-305.64
-296.02
-284.29
-273.40
-265.10
-259.39
-256.47
-258.21
-267.50
-286.63
-315.57
-351.03
-392.35
-433.36
-463.11
-472.50
-459.81
-430.15
-391.72
-352.73
-319.20
-306.18
-317.38
-342.56
-367.38
-383.59
-389.60
-387.82
-382.78
-379.33
-399.90
-450.38
-514.60
-569.87
-604.05
-617.11
-616.47
-611.99
-610.74
-637.93
-694.34
-753.09
-783.23
-772.83
-729.58
-671.03
-615.16
-419.89
-71.51
318.37
630.97
831.56
941.89
994.67
1014.53
1016.43
1008.51
970.30
897.45
808.52
727.22
663.99
617.25
582.11
556.21
541.15
520.13
487.43
451.46
421.50
397.83
376.69
356.89
340.48
329.63
311.76
279.66
237.47
195.31
161.20
139.38
130.85
132.68
139.14
138.17
124.74
103.08
81.61
66.13
57.84
54.88
53.74
51.70
45.60
35.58
24.61
15.99
11.32
9.89
10.12
10.22
9.11
6.61
3.34
0.26
-1.85
-2.68
-2.63
-2.37
-2.71
-3.98
-6.17
-8.78
-11.15
-12.98
-14.19
-15.10
-16.05
-17.55
-19.76
-22.58
-25.78
-29.02
-32.24
-35.25
-38.14
-40.69
-42.89
-44.50
-45.11
-44.46
-42.41
-39.05
-34.23
-28.45
-21.85
-14.85
-7.73
-0.66
6.15
12.82
19.09
24.93
30.05
34.32
37.63
40.12
41.84
42.92
43.82
44.49
44.76
44.38
42.97
40.44
36.86
32.57
27.94
23.60
19.75
16.29
13.00
9.71
6.73
4.61
4.11
5.98
10.71
18.24
28.13
39.84
52.22
64.22
73.65
78.19
75.89
66.66
51.93
34.70
17.70
1.89
-12.91
-28.15
-44.80
-62.33
-78.52
-90.54
-95.84
-93.22
-83.26
-67.15
-47.07
-25.07
-3.69
14.15
24.34
24.41
14.14
-4.18
-26.89
-50.06
-70.51
-86.40
-97.54
-104.67
-108.90
-111.30
-112.95
-114.56
-116.56
-118.69
-120.45
-121.84
-123.20
-125.19
-128.09
-131.35
-133.43
-132.69
-127.94
-118.91
-106.66
-92.47
-78.18
-65.31
-55.03
-48.22
-45.03
-45.07
-47.00
-49.02
-49.27
-47.14
-43.43
-40.10
-39.15
-41.16
-45.02
-48.17
-48.61
-46.34
-44.29
-46.70
-56.63
-74.05
-94.75
-112.54
-121.84
-120.18
-108.20
-88.78
-64.41
-35.72
-1.64
39.63
88.08
140.93
192.15
234.54
262.35
273.48
270.37
258.44
244.17
231.81
222.70
216.04
210.73
206.51
203.50
200.67
194.93
182.68
162.75
138.95
120.29
116.90
134.50
170.54
215.05
254.73
279.56
286.92
281.68
272.20
265.02
262.21
261.40
259.30
254.30
246.88
238.66
230.24
220.58
208.07
192.70
176.46
162.50
153.50
149.41
147.49
144.08
136.71
125.20
111.47
97.81
85.99
77.23
72.74
72.93
76.67
81.05
82.23
76.98
64.28
45.78
24.64
2.79
-20.14
-46.86
-80.70
-122.86
-171.64
-222.65
-270.30
-310.27
-340.71
-361.77
-375.08
-382.37
-384.40
-381.09
-372.20
-358.21
-340.98
-324.11
-311.03
-303.86
-301.94
-301.98
-298.94
-288.52
-268.78
-240.91
-208.62
-176.12
-146.72
-122.15
-102.40
-87.06
-76.55
-72.10
-74.92
-84.97
-99.92
-115.88
-129.15
-137.68
-141.98
-143.91
-145.79
-148.59
-151.75
-153.51
-151.72
-144.80
-131.92
-113.21
-89.23
-61.05
-29.89
2.72
35.50
67.57
98.22
126.63
151.48
171.09
183.41
187.02
181.84
169.60
153.64
137.80
125.11
116.33
109.88
102.89
92.69
78.49
61.14
42.36
23.66
5.85
-10.36
-23.32
-30.32
-28.30
-15.66
6.19
33.18
59.81
82.04
98.19
109.09
116.66
122.23
125.83
126.75
124.35
118.80
111.30
103.58
97.19
93.03
91.38
92.16
95.49
101.16
108.34
114.36
114.94
105.48
83.32
50.10
11.96
-22.41
-45.43
-54.11
-50.79
-41.56
-32.76
-27.32
-24.51
-21.01
-14.11
-3.63
8.09
18.05
24.18
26.52
26.33
25.13
23.69
22.24
20.41
17.85
14.63
10.81
6.47
1.36
-4.58
-11.16
-17.53
-22.47
-25.11
-25.01
-22.54
-19.02
-16.55
-17.34
-23.02
-33.40
-46.07
-56.85
-61.24
-56.14
-41.10
-18.47
7.60
33.02
54.93
72.32
85.25
94.10
98.70
98.78
94.48
86.57
76.40
65.16
53.61
41.76
29.21
15.38
-0.01
-16.62
-33.79
-50.78
-66.64
-80.29
-90.41
-95.51
-94.94
-89.36
-80.83
-72.42
-66.86
-65.41
-67.41
-70.91
-73.83
-75.16
-75.56
-76.69
-80.43
-87.49
-97.04
-107.16
-115.23
-119.22
-118.16
-112.28
-102.56
-90.69
-78.94
-70.39
-68.57
-76.15
-93.07
-115.39
-135.56
-144.84
-136.93
-110.59
-70.56
-25.43
16.15
48.64
70.94
85.19
94.50
100.81
104.53
105.33
103.36
99.90
96.75
95.44
96.49
98.91
101.02
101.29
99.28
95.53
91.23
87.28
83.67
79.69
74.47
67.33
58.31
48.13
37.62
27.48
17.83
8.38
-1.47
-12.30
-24.54
-38.20
-52.87
-67.37
-80.06
-88.84
-92.06
-89.12
-80.85
-69.54
-57.65
-47.28
-39.29
-33.44
-28.95
-25.03
-21.65
-19.21
-18.37
-19.33
-21.60
-24.14
-25.52
-24.48
-19.96
-11.26
1.79
18.51
37.42
56.15
71.89
82.41
86.53
84.54
77.90
68.74
58.98
50.08
42.73
37.10
33.17
30.43
28.39
26.40
23.87
20.81
17.20
13.35
9.52
6.19
4.00
3.92
7.01
13.77
24.05
36.53
49.22
60.13
68.09
72.57
73.95
72.74
69.21
63.47
55.84
47.08
38.39
31.16
26.11
22.98
20.63
17.54
12.92
6.98
0.97
-3.49
-5.57
-5.37
-4.15
-3.71
-5.40
-9.64
-15.83
-22.41
-27.52
-29.52
-27.51
-21.60
-12.83
-2.86
6.78
14.74
20.35
23.11
22.89
19.69
14.27
8.06
2.78
-0.26
-0.76
0.49
2.12
3.04
2.71
1.67
0.62
0.05
-0.24
-0.88
-2.67
-6.30
-11.52
-17.55
-22.98
-25.91
-24.87
-19.06
-8.96
3.74
16.28
25.90
30.64
29.88
24.52
16.29
7.30
-0.94
-7.54
-12.65
-16.30
-18.68
-19.64
-18.91
-16.68
-13.41
-10.04
-7.08
-4.98
-3.66
-3.27
-3.95
-5.56
-7.68
-8.91
-7.21
-0.66
11.97
30.32
52.38
74.94
94.64
108.35
114.39
112.60
104.16
91.25
76.16
60.59
45.21
30.00
14.01
-3.30
-22.08
-41.79
-61.39
-79.61
-95.40
-108.08
-117.25
-123.09
-125.52
-124.39
-119.46
-110.52
-97.55
-80.82
-60.69
-37.68
-12.59
13.43
38.57
60.61
77.73
89.10
95.35
98.26
99.79
101.08
102.10
101.79
98.93
93.25
85.51
77.28
70.17
64.83
60.76
56.38
49.41
37.88
21.13
-0.31
-24.37
-48.23
-69.29
-85.97
-97.92
-105.94
-110.85
-113.04
-112.70
-110.10
-106.02
-101.84
-98.79
-97.38
-97.21
-97.39
-96.72
-94.37
-89.82
-82.95
-73.95
-63.27
-51.64
-40.05
-29.34
-20.06
-12.46
-6.30
-1.12
3.53
8.43
14.40
22.05
31.58
42.67
54.23
65.22
74.53
81.52
85.85
87.54
87.00
84.70
81.08
75.96
68.78
59.14
47.24
34.56
23.66
17.32
17.26
23.48
34.01
45.63
55.08
59.99
59.48
54.11
45.57
35.82
26.47
17.88
9.13
-1.06
-13.45
-27.18
-40.24
-50.45
-56.85
-60.06
-61.57
-62.41
-61.50
-56.42
-44.59
-25.46
-1.01
25.13
49.18
69.37
86.22
102.19
119.39
138.76
159.97
182.14
204.62
227.09
248.93
268.64
284.07
292.71
293.28
286.11
272.98
256.42
238.39
219.86
200.80
180.87
160.39
140.59
122.80
107.26
93.00
77.74
59.51
37.65
13.22
-11.78
-35.36
-57.04
-77.82
-98.84
-120.49
-141.73
-160.74
-176.23
-188.35
-198.13
-206.32
-212.56
-215.32
-213.77
-209.32
-206.11
-209.58
-223.64
-248.32
-278.95
-308.05
-328.20
-335.10
-328.59
-312.01
-290.12
-266.84
-244.29
-223.01
-203.32
-185.96
-173.01
-166.34
-166.29
-170.26
-172.77
-167.39
-149.37
-118.19
-77.33
-32.99
8.70
44.33
73.39
97.78
119.53
139.55
157.15
171.18
181.16
187.71
192.65
197.44
202.50
206.87
208.74
206.41
199.20
187.52
172.30
154.41
133.80
110.29
84.09
56.68
30.72
9.22
-5.55
-13.21
-15.00
-12.99
-8.87
-3.09
4.53
14.44
25.77
36.50
43.66
44.69
38.37
25.72
9.60
-6.65
-20.10
-29.33
-34.60
-37.03
-38.03
-38.65
-39.30
-40.08
-41.03
-41.80
-41.91
-40.58
-36.94
-30.67
-22.12
-12.65
-3.51
4.10
9.51
12.91
14.45
14.46
13.04
10.44
6.94
3.29
0.22
-1.76
-2.58
-2.66
-2.64
-3.32
-5.08
-7.91
-11.86
-16.66
-22.03
-27.84
-33.44
-37.54
-38.82
-36.09
-29.36
-20.29
-11.21
-4.79
-2.51
-4.24
-8.08
-11.80
-14.05
-15.00
-16.36
-19.82
-26.06
-33.90
-41.13
-45.40
-45.93
-43.82
-41.59
-42.02
-46.67
-55.48
-66.48
-76.75
-83.62
-85.44
-81.75
-73.23
-61.12
-46.54
-30.42
-13.29
4.27
21.03
35.22
44.89
48.86
47.47
42.79
37.55
34.00
32.97
33.71
34.68
34.37
32.15
28.37
24.04
19.64
14.75
8.41
-0.35
-11.50
-23.98
-35.97
-45.95
-52.81
-56.25
-56.34
-53.06
-46.56
-37.32
-26.64
-16.38
-8.74
-5.20
-5.79
-9.34
-14.10
-18.83
-22.91
-26.29
-29.02
-31.27
-33.49
-36.62
-42.14
-51.14
-63.73
-78.36
-92.26
-102.39
-106.88
-105.80
-100.91
-94.54
-88.06
-81.56
-73.86
-63.53
-49.98
-33.76
-16.74
-1.22
10.74
18.26
21.44
20.78
17.06
10.68
2.14
-7.89
-18.24
-27.68
-35.21
-40.10
-42.75
-44.03
-45.26
-47.57
-51.42
-56.31
-61.60
-66.68
-71.36
-75.89
-80.25
-83.86
-85.18
-82.46
-74.58
-62.31
-47.96
-34.22
-23.29
-15.96
-12.40
-12.99
-18.98
-31.89
-52.32
-78.78
-107.37
-133.44
-152.94
-164.53
-169.66
-171.17
-171.76
-172.94
-174.61
-176.03
-176.83
-177.18
-178.08
-180.64
-185.18
-190.55
-194.06
-192.03
-180.91
-158.82
-126.10
-85.29
-40.32
4.86
47.11
84.74
117.03
144.33
167.23
186.56
203.36
218.24
231.10
240.80
245.84
245.00
238.44
228.11
217.06
208.39
203.43
200.58
195.66
183.31
159.07
121.59
73.28
19.83
-31.42
-73.27
-100.25
-109.32
-100.32
-75.89
-40.92
-1.68
35.44
65.09
83.62
89.66
83.59
66.85
41.74
11.11
-21.75
-53.52
-81.46
-104.85
-124.81
-143.63
-163.46
-184.51
-204.48
-219.47
-225.93
-222.65
-212.38
-200.90
-194.60
-197.36
-208.31
-222.04
-230.86
-228.58
-213.03
-187.01
-156.17
-126.18
-100.03
-77.19
-54.92
-30.38
-2.51
27.54
57.32
84.19
105.76
119.48
122.74
112.74
87.85
49.17
1.17
-48.77
-92.58
-123.82
-139.71
-140.90
-130.81
-113.84
-94.06
-74.62
-57.63
-44.60
-36.13
-32.02
-30.69
-29.81
-26.86
-19.96
-8.46
7.15
25.56
45.53
66.21
87.57
110.04
134.36
160.79
188.86
217.34
244.17
267.01
283.50
291.85
290.86
280.26
260.56
233.14
200.31
165.03
131.10
102.41
82.73
74.88
80.24
98.27
126.12
158.53
188.39
208.36
212.51
198.47
168.11
127.15
83.36
44.01
14.23
-4.02
-10.94
-8.11
2.79
20.10
41.60
64.56
85.76
102.31
111.93
113.62
107.24
93.61
74.56
52.69
31.36
14.23
4.20
2.39
7.77
17.54
28.83
39.82
50.50
62.20
76.31
92.87
109.82
123.73
131.05
129.81
120.69
106.14
89.93
75.26
64.53
59.19
59.62
65.27
74.30
83.71
89.94
90.17
83.36
71.13
57.51
47.34
44.57
51.51
68.11
92.43
121.32
150.35
174.96
191.10
196.47
190.55
174.84
151.88
124.32
94.76
65.30
37.68
13.39
-6.82
-22.99
-36.33
-48.47
-60.68
-73.26
-85.34
-95.70
-103.90
-110.62
-117.35
-125.47
-134.86
-143.10
-146.47
-141.54
-126.61
-102.93
-74.61
-46.57
-22.93
-5.70
5.76
13.40
19.11
24.00
28.06
30.35
29.61
24.68
14.21
-2.78
-26.63
-56.13
-88.28
-118.90
-143.58
-159.49
-165.47
-162.26
-151.54
-135.17
-114.64
-90.85
-64.34
-34.98
-2.54
32.31
67.67
100.31
126.44
143.84
153.40
159.62
168.96
186.13
211.51
240.48
265.36
279.10
278.58
265.84
246.07
224.78
204.38
184.50
163.73
141.88
120.94
103.59
91.35
82.42
72.53
57.07
33.93
5.06
-24.64
-49.60
-66.24
-74.10
-75.29
-72.20
-66.40
-57.30
-43.35
-23.20
3.24
33.88
64.53
90.30
107.96
116.93
119.66
120.21
121.80
125.44
129.45
130.84
126.92
117.00
102.41
86.24
73.05
67.34
72.46
88.40
111.38
134.23
149.05
150.18
136.33
111.07
80.09
49.09
21.68
-0.52
-16.38
-24.48
-23.90
-15.46
-2.65
8.52
12.19
4.67
-14.17
-41.49
-72.55
-103.18
-130.81
-154.58
-175.95
-197.23
-221.57
-251.76
-288.48
-329.09
-367.58
-396.49
-409.72
-406.46
-390.99
-370.80
-353.01
-340.37
-330.28
-316.79
-294.01
-258.79
-212.22
-157.78
-100.36
-45.61
0.69
32.66
46.27
41.28
22.50
-1.43
-20.31
-26.60
-18.78
-1.34
16.95
27.53
25.59
11.89
-7.71
-24.60
-31.35
-25.49
-10.15
6.77
16.51
13.99
-0.02
-20.19
-39.42
-52.73
-58.67
-58.26
-53.64
-45.75
-33.94
-17.57
2.20
21.37
34.34
36.70
27.88
11.44
-6.72
-21.35
-30.82
-37.66
-46.52
-61.81
-84.81
-113.09
-141.69
-165.12
-179.33
-182.83
-176.51
-162.49
-143.57
-122.79
-102.70
-85.28
-71.31
-60.80
-52.92
-46.56
-40.09
-31.85
-20.30
-4.42
15.68
38.48
61.22
80.98
95.26
103.54
106.85
107.58
108.55
111.29
116.00
120.78
123.31
121.52
115.00
104.50
91.18
75.95
58.61
39.18
18.55
-0.71
-15.53
-23.83
-25.56
-22.73
-17.37
-10.45
-0.44
15.09
37.92
67.31
100.08
132.26
160.71
185.02
206.43
227.34
249.32
272.42
295.21
315.18
330.00
337.81
337.85
330.11
315.59
295.58
271.41
244.15
214.02
180.72
143.64
102.63
58.44
12.63
-32.68
-75.77
-115.65
-152.43
-186.48
-218.17
-246.85
-271.08
-289.20
-300.08
-303.89
-302.03
-297.25
-292.43
-289.97
-291.17
-295.91
-303.44
-312.44
-321.37
-328.36
-331.34
-328.85
-320.35
-306.94
-291.02
-275.77
-263.94
-256.64
-253.18
-251.12
-247.10
-237.71
-220.93
-196.98
-168.58
-140.63
-117.89
-103.03
-94.74
-87.98
-75.75
-52.50
-16.33
29.62
78.33
121.47
152.32
169.16
174.87
176.23
180.56
192.88
214.47
242.85
273.30
300.19
318.90
325.51
317.33
293.94
258.54
218.99
185.77
168.91
173.08
195.07
224.77
249.21
258.27
248.68
225.17
197.39
175.26
164.12
162.83
164.78
161.90
148.07
120.92
82.39
36.58
-12.49
-61.74
-108.84
-151.79
-187.96
-214.68
-231.22
-239.01
-241.78
-243.76
-247.80
-253.88
-259.47
-261.54
-257.83
-248.51
-236.13
-224.66
-217.89
-217.81
-224.11
-234.23
-244.12
-249.55
-246.88
-233.98
-210.07
-176.65
-136.93
-95.37
-56.90
-25.11
-1.85
13.19
21.49
24.70
23.79
19.52
13.01
6.33
2.27
2.84
8.09
15.97
22.94
25.75
22.84
14.59
2.06
-13.63
-31.93
-52.02
-72.03
-88.65
-97.50
-95.11
-80.08
-54.63
-22.92
9.59
37.90
58.70
70.91
75.60
75.07
72.17
68.85
66.19
63.99
61.41
57.84
53.08
47.41
40.92
33.42
24.91
15.48
5.68
-3.72
-12.31
-20.58
-29.84
-41.21
-54.45
-67.26
-75.85
-76.10
-65.64
-44.22
-14.37
20.07
55.37
88.82
119.52
147.70
173.54
196.35
214.76
227.45
234.17
236.06
234.69
231.30
226.29
219.44
210.82
201.19
192.06
184.49
178.22
171.30
160.82
144.74
122.95
97.94
73.41
53.31
40.42
36.16
40.30
51.41
67.13
84.63
101.18
113.93
120.92
121.08
114.42
101.79
84.27
63.25
40.15
16.69
-5.29
-24.27
-39.41
-51.09
-60.22
-67.75
-74.00
-78.64
-80.87
-80.39
-77.74
-74.34
-72.03
-71.84
-73.78
-76.40
-77.55
-75.11
-67.85
-55.96
-41.27
-26.61
-14.32
-5.64
0.11
4.86
10.82
19.31
30.19
41.91
52.30
59.48
62.39
61.18
56.92
51.27
45.82
41.81
39.82
40.05
42.43
46.62
51.87
56.95
60.14
59.95
55.68
48.24
40.46
36.15
38.73
50.03
69.41
94.15
120.56
145.07
165.09
179.27
187.41
189.81
187.29
180.54
169.72
154.53
134.31
108.71
78.17
44.30
9.34
-24.46
-55.61
-83.96
-110.02
-134.28
-156.71
-176.49
-192.96
-206.22
-217.53
-228.97
-242.15
-257.50
-273.60
-287.79
-297.39
-300.59
-296.93
-287.18
-272.44
-254.03
-233.45
-212.45
-193.13
-177.35
-166.12
-159.09
-154.85
-151.57
-148.12
-144.02
-139.15
-133.68
-127.40
-120.39
-113.27
-107.10
-102.94
-101.13
-101.02
-101.17
-100.57
-99.00
-97.21
-96.61
-98.04
-101.06
-104.00
-104.30
-99.40
-87.93
-69.62
-45.53
-17.77
11.27
39.21
64.08
84.42
99.54
109.41
114.77
116.83
116.63
114.98
111.96
107.63
102.17
96.46
91.77
89.26
89.48
92.08
96.27
100.91
105.03
107.88
108.85
107.26
102.71
95.35
85.86
75.72
66.70
60.51
58.80
62.52
72.11
86.85
105.30
124.77
142.16
154.68
160.38
158.79
150.12
135.39
115.86
93.60
71.20
51.52
36.76
27.23
21.15
15.11
6.10
-7.30
-23.76
-39.85
-51.68
-56.58
-54.00
-45.23
-32.88
-19.35
-6.74
3.46
10.69
15.15
18.20
21.28
25.51
30.86
36.77
42.74
48.92
56.28
65.17
74.97
83.53
88.30
87.20
80.19
68.94
56.11
44.23
34.47
27.15
21.57
16.86
12.08
6.61
0.16
-7.04
-14.09
-20.49
-26.04
-31.58
-38.21
-46.62
-56.51
-66.55
-75.00
-80.23
-81.55
-78.88
-72.57
-62.85
-49.49
-32.62
-13.18
6.44
23.02
32.83
33.55
25.61
12.02
-2.22
-12.33
-15.01
-9.22
4.34
24.01
47.80
73.76
99.44
122.26
139.98
151.72
158.31
162.08
165.50
169.72
174.39
177.74
178.01
174.22
166.61
155.97
142.99
128.04
110.99
92.12
72.16
52.63
35.52
22.53
14.83
12.83
16.35
24.88
37.83
54.38
73.23
92.35
109.08
120.58
124.76
121.04
110.55
95.90
79.94
65.03
52.30
41.20
30.10
16.65
-1.31
-25.46
-56.13
-92.23
-131.02
-168.64
-201.59
-227.28
-244.80
-254.24
-256.54
-252.78
-244.34
-233.07
-220.97
-210.13
-201.63
-195.51
-190.47
-184.85
-177.22
-167.28
-155.66
-143.66
-132.56
-122.99
-114.84
-107.27
-98.93
-88.66
-75.97
-61.10
-44.75
-27.69
-10.46
6.10
20.49
31.12
36.74
37.55
35.29
32.86
32.80
36.44
43.51
52.45
61.68
70.27
78.10
84.98
90.54
94.16
95.60
95.10
93.27
90.74
88.28
86.76
87.23
90.39
96.26
104.05
112.46
120.31
127.43
134.42
141.90
150.14
157.88
163.38
164.98
161.93
154.51
144.11
132.68
122.28
115.00
111.78
111.76
112.17
109.21
99.50
81.96
58.55
33.12
9.97
-8.13
-20.52
-27.90
-31.17
-30.95
-27.45
-20.93
-12.08
-1.46
10.04
22.06
34.61
47.98
63.18
81.10
102.07
125.02
147.34
164.79
173.32
170.45
156.48
134.88
110.77
88.87
71.70
59.38
49.80
40.07
27.99
12.52
-6.11
-26.63
-47.78
-69.11
-90.74
-113.55
-138.44
-165.23
-192.60
-218.16
-239.16
-253.53
-260.19
-258.93
-250.02
-234.42
-213.63
-189.89
-165.83
-143.89
-125.56
-110.86
-98.31
-86.06
-72.76
-58.04
-42.68
-27.27
-11.67
5.10
24.23
46.41
70.89
95.60
118.17
136.48
149.80
159.02
165.68
171.13
175.82
178.91
178.94
174.59
164.83
149.33
128.87
104.91
79.52
54.89
32.63
13.31
-3.59
-19.46
-35.50
-51.98
-68.35
-83.33
-96.18
-107.04
-117.16
-128.37
-142.66
-161.68
-186.28
-216.52
-250.56
-284.79
-313.95
-332.59
-336.84
-325.96
-302.94
-273.47
-243.95
-218.90
-199.70
-184.77
-171.04
-156.05
-139.22
-121.98
-106.43
-94.00
-84.61
-77.24
-70.95
-65.55
-62.06
-61.44
-63.76
-67.31
-69.44
-67.28
-59.31
-45.81
-28.28
-9.15
9.41
25.34
37.30
44.50
47.45
47.63
47.31
48.22
50.69
53.83
55.79
54.80
50.28
43.12
35.09
28.38
24.45
23.36
23.88
23.57
20.27
13.08
2.86
-8.10
-17.16
-22.67
-24.84
-24.80
-23.94
-22.40
-18.94
-12.36
-2.60
8.74
19.37
27.23
32.01
34.03
34.26
33.14
30.13
24.89
18.02
11.33
6.89
6.05
8.16
11.03
12.20
9.87
4.42
-2.54
-8.78
-12.81
-14.47
-14.64
-14.47
-14.58
-15.42
-16.91
-19.09
-22.10
-25.53
-28.02
-27.68
-22.76
-12.55
1.58
17.20
31.20
41.23
46.59
48.08
47.05
44.69
41.57
37.51
32.54
27.17
22.42
19.53
19.27
21.19
23.42
23.53
19.91
12.53
3.54
-4.43
-9.32
-10.98
-11.29
-12.78
-17.35
-25.37
-35.67
-45.97
-54.25
-58.57
-57.59
-50.91
-39.03
-23.65
-7.46
6.78
17.46
24.51
29.33
33.56
37.89
41.61
43.29
41.85
37.61
32.45
28.53
27.24
28.31
29.53
28.34
22.77
12.69
-0.20
-13.08
-23.50
-30.13
-33.20
-34.63
-36.58
-41.00
-48.79
-59.41
-71.30
-82.24
-89.95
-92.33
-88.25
-77.40
-60.87
-40.72
-19.70
-0.18
16.54
30.12
41.08
49.63
55.57
58.17
56.91
51.90
43.95
34.63
25.37
17.23
10.43
4.62
-0.72
-5.73
-9.91
-12.78
-14.02
-14.26
-14.84
-17.22
-22.19
-29.58
-38.42
-47.51
-56.42
-65.18
-74.00
-81.93
-87.01
-86.76
-79.65
-66.12
-48.06
-27.85
-7.06
13.47
33.52
52.22
67.92
78.86
84.20
84.24
80.46
74.60
67.68
60.41
53.33
47.05
42.50
40.01
38.57
36.12
30.74
21.52
9.62
-2.56
-12.55
-18.80
-21.62
-22.34
-22.84
-24.54
-28.28
-34.42
-42.79
-52.54
-61.54
-66.70
-64.50
-52.57
-31.01
-2.92
26.75
52.89
72.03
83.40
88.21
88.81
87.23
84.49
80.53
74.88
67.40
58.20
48.00
37.33
26.95
17.19
8.13
-0.17
-7.89
-14.88
-21.00
-26.06
-30.01
-33.13
-35.88
-38.86
-42.44
-46.90
-52.47
-59.24
-67.07
-75.19
-82.01
-85.13
-81.80
-69.97
-49.47
-22.32
7.44
35.38
57.96
73.31
81.47
83.52
81.14
75.73
68.46
60.26
51.92
44.18
37.33
31.61
26.94
23.22
20.32
17.79
14.83
10.57
4.46
-3.51
-12.64
-21.99
-30.48
-37.45
-42.69
-46.81
-50.72
-55.30
-60.79
-65.94
-68.48
-65.55
-54.85
-36.24
-11.89
14.28
38.23
57.37
71.26
80.85
87.26
91.05
91.81
88.99
82.68
73.86
64.06
55.01
47.73
42.52
38.92
35.72
31.62
25.20
15.93
4.38
-7.69
-18.29
-25.90
-30.27
-32.72
-34.92
-38.62
-44.96
-54.01
-65.43
-78.26
-90.51
-99.11
-100.43
-91.26
-70.48
-39.99
-4.23
30.86
59.88
79.77
90.47
94.11
93.70
91.45
88.08
83.11
75.47
64.90
52.03
38.38
25.69
15.12
6.81
0.10
-6.02
-12.48
-19.43
-26.67
-33.97
-41.23
-48.57
-56.37
-64.97
-74.62
-85.50
-97.43
-109.86
-121.76
-131.44
-137.05
-136.97
-130.15
-116.29
-96.03
-70.97
-43.47
-16.63
6.67
24.03
34.17
37.33
34.93
29.09
21.70
14.16
7.17
1.04
-4.22
-8.88
-13.28
-17.89
-23.14
-29.48
-37.20
-46.56
-57.53
-69.84
-83.09
-96.94
-111.72
-128.00
-146.70
-168.07
-191.67
-216.05
-238.88
-257.30
-268.07
-268.41
-256.15
-230.57
-192.85
-146.36
-95.73
-45.37
1.68
44.55
83.83
120.69
155.29
186.48
211.58
227.71
233.24
228.37
215.56
198.64
181.51
166.88
155.87
148.20
142.98
140.14
139.85
142.50
147.80
154.22
159.52
161.59
159.02
151.37
139.17
123.64
106.92
92.10
82.71
81.76
90.33
106.67
126.94
146.83
163.07
174.85
182.79
187.69
189.38
186.14
175.70
156.91
131.04
101.72
74.13
53.00
40.69
36.97
38.66
40.76
38.21
27.45
7.47
-19.59
-48.87
-73.88
-88.79
-90.61
-81.22
-66.79
-55.33
-53.57
-63.92
-83.87
-107.35
-127.46
-138.32
-136.00
-118.55
-86.65
-44.15
1.03
37.95
56.00
49.88
23.23
-12.58
-42.97
-57.19
-52.41
-33.74
-10.28
10.07
23.92
32.92
40.93
50.50
60.39
65.71
60.43
40.31
6.00
-37.13
-79.96
-113.41
-131.53
-133.78
-124.64
-110.71
-97.21
-85.63
-74.36
-60.31
-42.15
-21.22
-1.06
14.50
23.83
27.45
28.02
28.33
30.35
34.22
39.00
43.04
45.06
44.86
43.24
41.94
42.24
44.21
46.26
45.89
41.97
35.32
29.07
26.77
30.56
39.56
50.40
58.70
61.21
57.38
48.88
39.24
32.48
32.09
40.12
56.71
80.21
106.80
131.98
151.39
162.59
165.50
162.25
156.48
152.32
153.80
162.94
178.50
195.86
207.66
206.23
186.46
148.41
97.73
44.19
-1.75
-32.20
-44.26
-40.02
-24.04
-0.60
28.67
64.37
106.85
153.80
199.46
235.77
255.51
255.54
237.74
207.60
171.41
133.81
97.73
66.05
42.55
30.96
33.32
47.41
65.82
79.17
79.38
63.31
33.84
-2.15
-37.26
-66.66
-88.86
-105.01
-116.51
-124.15
-127.91
-128.41
-127.56
-128.47
-133.91
-144.56
-158.55
-172.14
-181.76
-185.90
-185.58
-183.14
-180.51
-177.79
-173.87
-167.52
-159.08
-150.31
-143.57
-139.80
-138.20
-136.68
-133.24
-127.86
-122.03
-118.29
-117.81
-119.91
-122.15
-122.03
-118.72
-113.32
-108.19
-105.11
-104.29
-104.21
-102.71
-98.66
-92.77
-87.34
-84.94
-86.74
-91.83
-97.76
-101.68
-101.46
-96.55
-87.53
-75.44
-61.20
-45.66
-29.41
-13.33
1.27
13.26
21.48
25.58
25.62
22.05
15.41
6.52
-3.29
-12.63
-20.00
-24.28
-25.19
-23.49
-20.70
-18.69
-18.80
-21.62
-26.82
-33.36
-40.27
-47.03
-53.97
-61.83
-71.04
-81.35
-91.53
-99.63
-103.50
-101.67
-93.58
-79.72
-61.62
-41.26
-21.13
-3.88
7.86
12.23
8.69
-1.37
-14.80
-27.87
-37.66
-42.88
-44.54
-45.29
-47.98
-54.69
-65.70
-79.97
-96.12
-113.03
-130.23
-147.36
-163.95
-179.04
-191.57
-201.10
-207.66
-211.51
-212.05
-207.76
-197.05
-179.05
-154.96
-128.08
-102.76
-82.80
-70.04
-63.94
-62.26
-62.54
-62.67
-61.60
-59.01
-54.36
-46.80
-35.40
-19.57
0.20
22.16
43.87
62.66
76.80
85.82
90.63
92.32
91.77
89.25
84.33
76.91
67.33
56.82
47.02
39.06
32.89
27.48
21.13
12.54
1.35
-11.66
-24.90
-36.40
-44.65
-48.80
-48.98
-46.39
-42.89
-40.57
-41.05
-44.87
-51.32
-58.89
-65.91
-71.52
-75.72
-78.92
-80.86
-80.23
-75.08
-63.93
-46.98
-26.35
-5.51
12.13
24.41
31.32
34.64
37.19
41.39
48.41
57.73
67.61
76.32
82.89
88.02
93.72
102.41
115.56
133.05
153.43
174.14
192.24
203.81
203.95
188.70
156.68
110.95
58.28
6.96
-36.92
-71.78
-99.92
-124.90
-147.79
-166.19
-175.71
-173.54
-160.69
-141.51
-120.65
-99.86
-77.18
-48.56
-11.38
33.29
80.53
123.41
156.13
176.08
184.42
184.58
180.48
174.59
167.69
159.66
149.67
137.50
123.56
109.58
97.98
91.66
93.23
104.26
125.20
154.23
187.76
220.68
247.59
263.98
267.25
257.50
237.20
210.56
182.07
155.35
132.42
113.89
99.60
89.02
81.93
77.68
75.01
72.11
67.35
60.04
50.81
41.49
33.95
29.80
29.61
33.06
39.53
48.33
58.75
70.04
81.88
93.88
106.10
118.56
130.96
142.52
151.91
157.89
159.59
157.13
151.19
143.11
134.20
125.41
117.72
112.04
109.55
111.07
116.38
123.83
130.79
134.48
133.00
126.16
114.59
99.54
81.44
60.07
35.14
7.49
-20.60
-46.14
-65.75
-77.65
-81.40
-78.39
-71.08
-62.61
-56.06
-53.78
-57.38
-66.98
-82.27
-102.32
-125.71
-150.34
-173.21
-190.60
-198.72
-195.08
-179.34
-153.90
-122.97
-91.16
-62.13
-37.87
-19.21
-5.84
2.49
6.25
5.81
1.93
-4.21
-11.37
-18.01
-23.32
-26.94
-29.28
-31.12
-33.15
-35.67
-38.45
-41.23
-43.59
-45.48
-46.79
-47.24
-46.11
-42.29
-34.53
-21.66
-3.30
20.30
47.86
77.63
107.35
134.83
158.34
176.68
189.71
197.65
201.10
200.76
197.81
193.80
190.46
189.46
191.43
195.80
200.52
202.55
198.61
186.24
164.75
135.48
101.55
66.70
34.40
6.89
-14.93
-31.43
-43.66
-52.69
-59.52
-64.94
-70.02
-75.65
-82.67
-91.43
-101.92
-113.78
-126.25
-138.28
-148.75
-156.90
-162.01
-164.26
-164.74
-165.34
-168.25
-174.93
-185.74
-199.60
-214.32
-226.62
-232.59
-228.25
-210.37
-178.01
-133.22
-81.37
-29.62
15.02
47.81
67.22
74.69
73.47
67.00
58.28
49.32
41.54
35.57
31.27
27.45
22.88
17.00
9.90
2.51
-4.30
-10.35
-15.94
-21.38
-26.17
-28.85
-27.50
-21.09
-10.22
2.95
15.43
24.76
29.66
30.52
28.72
25.95
23.79
23.36
25.44
30.07
36.20
42.02
45.44
45.17
41.41
36.00
31.31
29.27
30.36
33.77
38.04
41.63
43.78
44.21
42.86
39.44
34.06
27.76
22.71
21.45
24.91
31.35
36.05
33.23
18.63
-8.25
-43.54
-80.78
-113.21
-136.67
-150.06
-154.92
-153.89
-149.22
-142.27
-133.51
-123.01
-110.88
-97.83
-85.10
-74.61
-67.96
-65.87
-67.77
-71.83
-75.98
-78.45
-78.63
-76.68
-73.27
-69.07
-64.49
-60.06
-56.04
-53.07
-51.58
-51.99
-54.82
-59.85
-66.24
-71.84
-73.85
-69.43
-57.46
-39.24
-18.12
1.65
16.80
26.00
29.90
29.96
27.70
23.78
18.50
12.14
5.22
-1.12
-5.77
-7.47
-5.84
-1.37
4.30
8.75
10.07
7.35
1.95
-3.72
-6.87
-6.22
-3.09
-0.36
-1.23
-7.51
-18.84
-32.55
-45.27
-54.01
-56.84
-53.52
-44.72
-31.88
-17.09
-3.19
7.03
11.14
8.72
2.33
-2.97
-1.12
11.71
35.59
65.60
94.32
114.94
124.11
123.54
118.30
114.27
115.27
122.12
132.56
142.60
147.68
144.26
130.72
107.53
77.03
42.64
7.82
-24.83
-54.12
-80.54
-105.51
-130.65
-157.36
-185.59
-213.38
-236.67
-250.10
-248.50
-229.04
-192.48
-142.63
-85.80
-28.80
22.48
63.61
91.95
107.06
110.31
104.50
93.57
80.80
68.55
57.61
47.54
37.40
26.88
16.45
7.05
-0.09
-4.53
-6.52
-7.32
-8.80
-12.69
-19.87
-29.96
-41.82
-54.07
-65.82
-76.45
-85.79
-93.55
-98.65
-99.73
-95.49
-85.46
-70.20
-51.16
-30.14
-9.38
8.37
20.16
23.18
15.80
-1.77
-27.17
-56.50
-85.74
-111.94
-134.33
-153.89
-172.81
-193.20
-216.28
-241.99
-268.74
-293.68
-312.71
-321.79
-317.74
-299.65
-268.59
-227.64
-181.02
-133.13
-88.07
-48.73
-16.88
7.33
24.69
36.73
44.68
48.62
47.83
41.18
28.48
10.61
-10.82
-33.76
-56.54
-77.12
-92.85
-99.93
-94.80
-75.80
-44.66
-6.90
30.13
59.61
78.05
85.55
85.35
81.37
76.64
72.63
69.94
69.07
70.72
75.88
84.60
96.29
109.31
122.05
133.69
144.27
154.95
166.61
179.49
192.82
204.79
213.59
217.80
216.98
211.16
200.96
186.79
169.10
148.78
127.09
106.19
88.40
75.94
69.86
70.07
75.59
84.87
95.97
106.82
115.91
122.64
127.90
133.95
143.36
156.90
172.30
184.38
186.77
175.28
149.73
114.20
76.01
42.98
21.13
13.08
18.03
32.07
49.68
65.07
73.87
74.47
67.72
56.08
42.04
27.18
11.77
-4.09
-19.39
-32.10
-39.77
-41.42
-38.21
-33.08
-29.81
-31.68
-40.37
-55.96
-77.22
-101.78
-126.38
-146.81
-158.15
-156.18
-138.83
-106.91
-64.15
-15.71
33.82
81.98
128.79
175.36
221.98
266.01
301.99
323.24
324.58
304.89
267.63
219.79
169.18
122.10
81.75
48.51
21.60
0.70
-13.62
-20.50
-20.17
-15.03
-9.13
-7.35
-13.82
-30.57
-57.19
-90.89
-127.07
-160.31
-185.93
-200.83
-204.29
-197.76
-183.62
-164.64
-143.00
-120.05
-96.77
-73.91
-52.05
-31.09
-10.54
10.24
30.48
47.40
56.55
53.07
34.02
0.17
-43.85
-90.68
-132.70
-164.56
-184.60
-195.15
-201.92
-212.21
-232.84
-267.96
-317.19
-374.76
-430.83
-474.29
-496.56
-494.75
-472.79
-440.25
-409.45
-391.03
-390.26
-405.17
-427.49
-445.75
-449.80
-434.39
-401.31
-358.35
-315.78
-281.87
-259.49
-245.68
-234.31
-219.84
-200.09
-176.87
-153.86
-134.39
-119.73
-108.70
-99.04
-89.31
-79.47
-70.41
-62.20
-53.25
-41.31
-24.74
-3.81
19.87
43.99
67.10
89.35
111.78
135.07
158.61
180.65
199.23
213.56
224.32
233.28
242.20
251.75
261.53
270.06
275.36
275.00
266.48
247.84
218.66
180.91
138.45
96.23
58.46
27.93
5.54
-8.35
-13.20
-8.25
6.89
30.80
60.06
89.51
113.67
128.16
131.37
124.41
110.47
94.25
80.35
72.54
72.84
80.93
94.06
108.26
119.41
124.38
122.29
113.72
100.41
84.41
67.59
51.24
36.10
21.99
7.88
-7.45
-24.58
-41.93
-55.43
-59.22
-48.14
-19.80
23.97
77.02
131.62
180.76
220.33
249.42
269.10
280.76
285.60
284.28
277.57
266.73
253.32
239.33
226.65
216.16
207.98
201.63
196.28
191.58
187.57
184.72
183.46
183.59
183.89
182.83
179.63
175.31
172.78
175.63
185.59
200.60
215.04
221.55
214.81
194.11
163.45
129.70
99.14
74.92
56.71
41.84
27.64
13.07
-1.36
-14.64
-25.83
-34.77
-41.83
-47.37
-51.89
-56.35
-62.68
-73.52
-91.81
-118.98
-154.21
-193.90
-232.29
-262.51
-278.38
-275.67
-252.71
-210.62
-153.36
-87.60
-22.18
33.69
72.86
92.32
93.81
82.63
65.22
47.00
30.79
17.11
5.53
-4.40
-12.62
-18.61
-21.87
-22.29
-19.84
-14.88
-8.54
-2.67
0.20
-2.41
-11.55
-25.84
-42.14
-56.01
-63.26
-61.12
-48.91
-27.71
-0.33
29.71
59.11
84.88
104.49
115.69
116.42
105.10
81.26
46.21
3.35
-42.30
-84.88
-119.14
-141.47
-150.29
-145.92
-130.43
-107.25
-80.25
-53.49
-30.49
-13.72
-4.67
-4.02
-11.55
-26.42
-46.78
-69.47
-90.06
-103.97
-107.29
-98.08
-77.21
-48.22
-16.28
13.06
35.42
48.68
52.95
50.36
44.01
36.99
31.16
27.23
24.71
22.51
19.73
16.39
13.14
10.70
9.29
8.29
6.66
3.72
-0.44
-4.89
-8.48
-10.89
-13.01
-16.86
-23.74
-33.32
-42.87
-48.28
-45.69
-33.81
-14.34
8.53
29.69
45.42
53.94
55.57
51.90
44.87
35.69
25.07
13.42
1.17
-10.85
-21.44
-29.53
-34.55
-36.73
-36.96
-36.66
-37.06
-38.80
-41.89
-45.98
-50.57
-55.40
-60.34
-65.10
-69.32
-72.27
-72.73
-69.12
-60.31
-45.63
-26.12
-4.41
16.20
32.72
43.69
49.44
51.57
51.82
51.34
50.28
47.99
43.97
38.33
31.96
26.19
21.92
19.43
18.36
17.74
16.88
15.65
14.58
14.34
14.95
15.86
15.97
14.48
11.59
8.85
8.70
13.36
24.05
40.39
60.50
81.91
101.90
118.00
128.87
134.07
134.33
130.97
125.45
119.08
112.81
107.11
101.84
96.57
90.87
84.64
78.62
74.11
72.35
73.89
78.13
83.45
87.43
88.31
85.31
79.21
71.68
64.58
59.42
57.06
57.56
60.20
63.59
66.63
68.69
69.51
68.88
65.75
58.25
44.81
25.34
2.37
-18.83
-32.28
-33.78
-23.07
-3.99
17.24
35.07
46.83
52.46
53.63
50.96
43.52
29.24
6.61
-23.93
-59.56
-96.08
-129.54
-157.35
-178.71
-194.13
-204.61
-211.22
-214.67
-215.31
-212.94
-207.27
-198.34
-187.33
-176.19
-166.94
-160.72
-156.76
-153.09
-147.56
-139.87
-131.99
-127.87
-131.65
-145.20
-167.00
-192.06
-213.82
-226.25
-226.20
-214.00
-192.61
-166.27
-139.09
-114.22
-93.84
-79.21
-70.24
-65.10
-59.66
-49.12
-29.76
-1.63
31.01
61.64
84.24
96.59
100.56
101.13
102.90
107.91
115.01
121.36
125.21
127.66
132.37
143.30
162.01
186.00
210.05
228.99
240.49
245.64
246.97
246.03
241.53
231.06
213.83
193.02
175.21
166.63
169.28
178.47
185.68
183.55
170.22
150.21
130.85
117.37
109.30
101.82
88.76
66.92
37.63
5.23
-25.72
-52.55
-75.10
-94.28
-110.78
-124.48
-134.73
-141.44
-145.34
-147.66
-149.69
-152.18
-155.78
-161.10
-168.65
-178.22
-188.09
-195.47
-197.12
-190.99
-177.85
-160.89
-144.52
-132.40
-125.53
-122.45
-120.13
-116.02
-109.19
-100.58
-91.95
-84.53
-78.61
-73.57
-68.83
-64.31
-60.52
-58.18
-57.48
-58.13
-59.50
-60.85
-61.96
-63.03
-64.46
-66.59
-69.09
-70.77
-69.46
-62.70
-48.89
-28.21
-3.49
20.63
38.87
47.25
44.20
30.72
9.91
-14.30
-37.69
-56.48
-68.03
-71.71
-68.56
-61.38
-53.51
-47.35
-43.98
-42.96
-43.36
-44.47
-46.84
-50.81
-56.28
-61.81
-64.89
-63.28
-56.27
-45.00
-32.07
-20.09
-10.40
-3.61
-0.30
-1.70
-9.92
-26.77
-51.47
-79.73
-103.89
-115.50
-109.02
-85.48
-52.49
-22.06
-5.51
-8.40
-28.49
-56.65
-81.84
-96.51
-100.45
-99.20
-100.45
-108.68
-123.55
-141.53
-160.12
-180.20
-205.03
-236.31
-269.92
-295.99
-302.95
-284.03
-241.41
-185.16
-127.78
-77.98
-37.14
-0.54
36.99
76.52
114.09
142.97
158.45
161.61
158.80
158.90
168.56
188.66
213.85
235.81
246.78
242.93
225.66
200.21
173.08
149.88
134.11
126.77
127.35
133.43
141.56
148.54
152.51
154.21
156.08
160.57
168.11
176.50
181.29
178.78
168.34
152.41
135.49
121.48
111.31
103.47
95.34
85.22
73.70
63.01
54.66
48.64
42.82
34.30
21.94
7.05
-6.41
-13.89
-12.39
-2.32
13.40
30.24
44.38
54.27
60.06
62.99
63.95
62.95
59.14
52.63
44.24
35.75
29.46
26.26
25.82
26.48
26.51
24.65
21.25
17.43
14.48
13.23
13.03
12.33
9.11
2.10
-8.49
-20.58
-31.00
-36.48
-34.85
-25.94
-11.16
6.54
24.12
39.05
49.53
54.75
54.26
49.01
40.94
32.90
27.62
26.44
29.03
32.94
36.02
36.37
34.01
29.86
24.97
20.22
15.75
11.53
7.18
2.67
-2.37
-8.09
-14.23
-19.41
-21.23
-17.01
-5.61
11.49
31.04
48.36
59.88
64.30
62.43
56.56
48.73
39.96
30.39
19.93
8.96
-1.28
-8.74
-12.00
-10.68
-6.27
-1.25
2.10
2.74
1.18
-1.00
-2.46
-2.98
-3.30
-4.50
-7.07
-10.44
-12.93
-12.97
-9.41
-2.46
6.61
15.93
23.45
27.54
27.32
23.26
17.56
12.99
11.88
14.68
19.40
22.53
20.91
13.56
2.40
-8.96
-17.09
-20.51
-20.58
-20.04
-21.47
-25.49
-30.76
-35.11
-36.82
-35.63
-32.24
-27.60
-21.98
-14.95
-5.88
4.94
16.29
26.15
32.63
34.73
32.78
27.72
21.03
13.47
5.51
-2.53
-10.28
-16.88
-21.40
-22.96
-21.36
-17.29
-12.49
-8.95
-8.17
-10.45
-14.76
-19.19
-21.86
-21.75
-18.75
-13.66
-7.62
-1.41
4.55
10.37
15.90
20.76
24.14
25.23
23.86
20.37
16.10
12.38
10.20
9.43
8.89
7.15
3.29
-2.28
-8.36
-13.14
-15.62
-15.55
-13.61
-11.13
-9.53
-10.03
-13.38
-19.72
-27.59
-35.00
-39.12
-37.82
-30.95
-20.25
-8.77
0.92
7.07
9.72
9.64
8.01
5.93
4.26
3.84
5.10
7.47
9.51
9.31
5.59
-1.32
-9.69
-17.38
-22.75
-25.60
-26.84
-27.29
-27.37
-26.91
-25.70
-23.89
-22.42
-21.51
-20.79
-19.25
-15.61
-9.75
-2.82
3.32
7.24
8.55
8.31
8.33
10.19
14.61
21.25
28.63
35.32
40.31
43.27
44.27
43.40
40.60
35.60
28.59
20.36
12.16
5.47
1.14
-1.20
-2.64
-3.98
-4.98
-4.44
-0.71
6.55
15.94
24.77
30.39
31.61
29.40
25.99
23.48
22.71
22.58
21.41
17.84
12.11
5.57
-0.07
-3.88
-6.13
-7.89
-10.46
-14.48
-19.83
-25.86
-31.45
-35.97
-38.95
-40.11
-39.44
-37.14
-33.83
-30.34
-27.62
-26.08
-25.79
-25.98
-26.04
-25.75
-25.31
-25.31
-26.03
-27.49
-28.81
-29.59
-29.48
-28.84
-27.81
-25.65
-21.22
-13.53
-3.62
5.77
10.63
8.08
-1.93
-16.08
-29.14
-36.69
-36.96
-31.34
-22.60
-13.04
-3.43
6.92
18.82
31.96
44.48
54.26
59.85
61.39
60.37
58.80
58.25
58.86
60.13
60.99
61.33
61.97
64.35
69.97
79.27
91.41
104.14
115.22
122.77
126.39
126.73
125.58
124.99
126.82
132.19
140.89
151.88
163.00
172.36
178.68
182.25
184.32
186.74
190.88
197.12
204.87
212.36
217.33
217.32
210.54
196.80
177.90
157.62
140.16
128.27
121.54
116.67
109.25
95.89
76.27
52.58
28.36
6.35
-12.39
-28.80
-44.18
-59.75
-76.13
-93.27
-111.76
-132.36
-155.86
-181.78
-208.23
-231.35
-246.26
-248.08
-233.53
-203.19
-162.08
-118.48
-81.72
-59.19
-53.94
-64.94
-88.15
-118.90
-153.29
-188.29
-221.07
-248.78
-268.45
-278.56
-280.10
-276.61
-272.55
-272.01
-276.16
-283.79
-292.19
-297.99
-298.67
-292.59
-279.05
-257.82
-229.05
-193.56
-153.35
-111.82
-72.80
-39.72
-14.81
1.93
12.29
18.96
24.44
29.92
35.25
39.18
39.92
35.71
26.05
11.39
-6.32
-24.24
-39.19
-48.45
-49.95
-43.29
-29.71
-12.11
5.32
18.79
26.24
28.07
26.82
25.58
26.35
29.32
33.70
38.44
43.53
50.00
58.96
70.53
83.41
95.59
105.33
112.39
117.68
122.57
128.04
133.70
138.47
140.58
138.60
132.00
121.76
110.24
100.65
96.14
98.19
106.54
118.87
131.77
141.85
146.39
143.76
133.19
114.70
88.28
54.54
14.34
-30.83
-79.10
-128.01
-174.24
-213.71
-241.89
-255.31
-252.33
-234.52
-206.47
-174.62
-145.53
-123.79
-111.73
-109.42
-115.77
-128.91
-146.25
-164.25
-177.90
-182.11
-173.34
-151.59
-120.65
-87.03
-57.25
-35.20
-21.23
-12.05
-3.27
8.44
23.35
39.02
51.14
55.98
52.28
41.60
28.26
17.03
11.49
12.39
18.14
25.61
31.89
35.64
36.47
35.11
31.95
27.33
21.86
16.90
14.73
17.38
25.79
38.68
53.45
66.83
76.27
80.72
80.73
77.84
73.61
69.68
66.71
64.99
64.37
64.54
65.49
67.52
71.09
76.35
83.02
89.63
94.11
94.36
89.60
81.23
71.84
64.55
61.41
63.07
68.39
75.62
83.27
90.69
98.20
106.18
114.64
122.63
128.50
130.29
126.79
118.13
105.67
92.02
79.86
70.99
65.84
63.00
60.17
55.09
46.53
34.85
21.83
9.50
-0.69
-8.64
-15.37
-21.93
-28.41
-33.89
-36.69
-35.54
-30.45
-22.78
-14.32
-6.80
-1.39
1.24
0.36
-4.96
-15.82
-32.63
-54.75
-80.26
-107.06
-133.64
-159.78
-186.49
-214.37
-242.79
-268.23
-285.67
-289.99
-278.67
-252.74
-216.89
-178.09
-143.10
-116.88
-101.16
-95.04
-95.85
-99.90
-103.59
-103.51
-97.53
-84.22
-63.98
-38.56
-11.06
14.42
34.30
45.86
49.11
46.23
41.46
38.82
40.64
46.36
53.13
58.06
59.85
60.40
63.00
70.84
84.25
100.46
114.84
123.54
125.69
123.42
120.76
120.86
124.49
129.88
134.33
135.74
133.58
129.18
124.24
120.12
116.62
112.18
104.49
91.17
70.99
44.18
12.51
-21.52
-54.85
-85.21
-111.12
-131.79
-146.92
-156.04
-158.76
-155.12
-146.12
-133.71
-120.36
-108.31
-98.73
-91.51
-85.09
-77.46
-66.74
-52.09
-33.69
-12.50
9.87
32.19
53.38
72.83
89.61
102.79
111.04
113.22
108.85
98.70
85.01
70.27
56.85
45.92
37.29
29.95
22.99
16.06
9.13
1.98
-6.35
-17.40
-32.56
-52.14
-75.05
-99.29
-122.10
-141.20
-154.67
-160.98
-159.09
-148.31
-129.37
-104.45
-77.14
-51.31
-30.07
-14.28
-2.92
6.25
15.71
26.79
39.52
52.71
64.28
71.54
72.23
64.53
47.76
23.01
-7.26
-39.59
-69.94
-94.49
-110.56
-116.82
-113.68
-103.14
-87.45
-68.88
-48.89
-27.70
-5.41
17.36
39.06
57.55
71.09
79.17
82.40
82.06
79.53
75.73
71.09
66.22
61.74
58.13
55.49
53.07
50.12
46.27
41.59
36.85
32.57
28.47
23.15
14.84
2.09
-15.25
-35.79
-57.59
-78.22
-95.59
-108.32
-115.34
-116.09
-110.33
-98.25
-80.53
-58.82
-35.10
-11.60
9.99
28.84
45.09
58.93
70.06
77.47
79.76
76.36
67.74
55.58
41.87
27.87
14.02
-0.08
-14.86
-30.05
-44.60
-57.12
-66.36
-71.31
-71.41
-66.25
-55.73
-40.49
-22.10
-2.70
15.39
30.52
42.19
50.55
56.26
59.93
62.02
62.67
62.05
60.24
57.58
54.78
52.62
51.86
52.40
53.22
52.55
48.56
40.24
28.05
13.64
-0.72
-12.83
-21.63
-26.75
-28.27
-25.98
-19.41
-8.43
6.02
21.45
34.34
40.84
38.31
26.29
6.70
-16.57
-39.28
-57.89
-70.48
-76.68
-77.00
-72.03
-61.97
-47.27
-29.06
-9.60
7.69
19.23
21.91
14.54
-1.62
-23.01
-44.74
-61.47
-69.22
-65.99
-52.23
-30.79
-5.62
19.16
40.30
56.10
66.56
72.48
74.95
75.08
73.25
69.64
64.55
58.37
52.02
46.40
41.81
37.55
32.74
26.46
18.64
10.23
2.22
-4.63
-10.60
-16.52
-23.25
-30.67
-37.56
-41.87
-41.51
-35.54
-24.36
-9.87
5.36
18.61
27.79
31.85
31.00
26.51
19.88
12.79
6.28
0.69
-4.07
-8.48
-12.92
-17.51
-21.96
-25.98
-29.18
-31.56
-33.41
-35.44
-38.41
-42.62
-47.61
-51.70
-52.47
-47.39
-34.61
-13.57
14.64
47.37
81.11
111.86
136.50
152.72
159.41
156.45
144.31
124.32
98.33
69.12
39.50
12.28
-10.44
-27.72
-39.67
-47.25
-51.55
-53.37
-53.10
-51.44
-49.09
-46.96
-45.59
-45.18
-45.63
-46.88
-48.93
-51.29
-53.06
-52.55
-48.33
-39.82
-27.52
-13.03
1.94
16.24
29.62
42.45
54.96
66.61
76.23
82.93
86.31
86.69
84.71
80.82
75.01
67.11
56.97
44.98
32.21
19.96
9.61
1.86
-3.33
-6.88
-10.05
-13.76
-18.21
-22.60
-25.72
-26.44
-24.37
-20.24
-15.56
-11.86
-10.21
-11.20
-14.91
-21.28
-29.93
-40.41
-52.01
-63.89
-75.19
-85.35
-94.12
-101.31
-107.06
-111.43
-115.05
-118.74
-123.16
-128.53
-134.21
-138.92
-141.10
-139.68
-133.96
-123.68
-108.86
-89.59
-66.04
-39.06
-10.02
19.28
46.69
70.40
89.29
102.70
110.45
112.80
110.57
105.04
97.80
90.45
84.23
80.23
79.22
81.69
87.20
94.46
101.30
105.10
103.99
97.35
86.19
72.64
59.48
48.77
41.75
38.73
39.61
44.13
52.15
63.46
77.09
91.35
103.73
111.21
110.94
100.77
79.88
49.11
11.45
-28.52
-65.31
-93.10
-107.52
-106.44
-90.59
-63.19
-29.25
5.81
37.22
61.54
77.07
83.87
83.40
78.11
70.86
64.30
60.35
60.05
63.37
69.41
76.54
82.96
87.07
87.62
84.02
76.28
65.25
52.08
38.26
24.84
12.52
1.49
-8.71
-18.29
-27.30
-35.22
-41.37
-45.11
-46.62
-46.82
-47.13
-49.07
-53.45
-60.14
-67.99
-75.23
-80.13
-81.68
-79.93
-75.61
-69.99
-63.96
-58.02
-52.11
-46.28
-40.85
-36.55
-34.50
-35.21
-38.76
-44.23
-50.28
-55.32
-58.12
-58.22
-55.49
-50.66
-44.49
-37.72
-30.79
-23.95
-17.47
-11.79
-7.62
-5.19
-4.45
-4.28
-3.11
0.93
8.89
20.60
34.84
49.56
63.15
74.50
83.48
90.08
94.18
95.39
93.25
87.91
79.96
70.81
61.89
54.75
50.51
49.52
51.61
55.78
60.73
64.98
67.65
68.41
67.79
66.61
65.43
64.39
62.86
60.28
56.08
50.35
43.50
36.12
28.73
21.40
13.97
6.03
-2.67
-12.47
-23.54
-36.33
-51.62
-70.12
-92.28
-117.45
-143.98
-169.46
-191.78
-209.49
-222.19
-229.88
-232.08
-227.88
-216.06
-196.54
-170.76
-141.67
-112.52
-85.40
-60.73
-37.20
-13.40
11.01
34.61
54.73
69.06
76.71
78.70
77.37
75.12
73.14
71.19
68.00
62.08
52.74
40.12
25.03
8.37
-8.97
-26.64
-44.28
-61.42
-77.44
-91.62
-103.32
-111.85
-116.77
-117.44
-113.11
-102.95
-86.03
-62.30
-32.80
-0.22
31.51
58.24
76.74
85.98
87.05
82.68
76.16
70.32
66.85
66.25
68.07
71.37
75.40
79.53
83.47
87.10
90.45
93.21
94.49
93.09
87.72
77.75
63.41
45.93
26.96
8.05
-9.74
-25.99
-40.23
-52.12
-61.11
-66.76
-69.39
-69.77
-69.43
-70.16
-73.83
-81.89
-95.36
-114.12
-136.57
-159.67
-179.38
-191.96
-194.92
-187.85
-172.17
-150.52
-125.63
-99.76
-74.97
-52.95
-35.76
-25.16
-22.03
-25.74
-33.92
-43.01
-49.06
-49.31
-42.68
-30.25
-14.47
2.15
17.61
31.15
42.69
52.29
59.47
63.39
63.19
58.18
48.34
34.40
17.87
0.57
-15.25
-27.49
-34.32
-34.35
-27.23
-13.68
4.13
23.33
40.47
52.25
56.69
53.38
44.31
32.88
23.19
18.16
18.88
24.33
32.06
39.68
45.60
49.92
53.90
59.00
65.63
72.91
79.28
83.60
85.78
86.48
86.87
87.44
88.12
88.14
87.00
84.80
82.24
80.25
78.86
77.48
75.07
70.93
65.72
61.14
59.54
62.77
71.60
85.19
101.86
119.16
134.85
147.23
155.14
157.54
153.61
142.85
125.00
101.11
73.05
43.57
15.51
-9.22
-30.08
-47.97
-64.52
-81.57
-99.90
-119.18
-138.06
-154.82
-168.09
-177.23
-182.31
-183.67
-181.53
-175.34
-164.25
-147.31
-124.05
-95.42
-63.42
-31.14
-1.35
23.78
43.66
58.65
69.69
78.16
84.87
90.76
96.58
103.31
111.52
121.14
130.97
139.40
145.14
147.44
146.69
143.34
137.56
128.67
116.07
99.91
81.86
65.06
52.47
46.04
45.57
48.85
52.72
54.22
51.33
42.82
28.18
6.60
-22.42
-58.22
-98.76
-140.95
-182.20
-221.13
-257.75
-292.06
-324.04
-351.40
-369.60
-372.75
-356.24
-319.66
-267.37
-207.43
-148.67
-100.09
-66.63
-48.26
-40.28
-36.20
-31.01
-22.67
-11.27
2.36
14.78
22.47
22.20
11.78
-10.23
-44.15
-88.59
-139.34
-174.18
-173.40
-128.92
-51.00
39.87
125.71
197.64
254.26
298.13
333.00
358.59
375.49
384.00
385.73
383.69
380.46
377.36
374.37
370.64
362.79
348.43
326.61
298.90
268.84
239.85
214.36
193.41
177.09
163.67
151.30
138.46
125.02
111.79
99.64
88.80
78.91
69.53
59.58
48.36
35.33
20.68
4.97
-11.21
-27.59
-44.05
-60.40
-76.40
-91.49
-105.29
-117.49
-128.31
-138.36
-148.86
-160.91
-175.52
-193.23
-213.86
-236.99
-262.09
-288.74
-316.82
-346.61
-378.72
-413.61
-451.08
-489.50
-525.84
-555.82
-575.23
-581.18
-573.04
-553.13
-525.89
-497.16
-472.03
-453.92
-443.30
-438.02
-434.04
-426.37
-410.76
-384.42
-347.31
-301.42
-250.62
-198.86
-149.73
-105.73
-67.80
-35.84
-9.21
12.72
30.55
45.14
57.71
69.71
82.15
96.15
111.75
129.12
148.57
170.50
194.80
220.15
243.34
259.37
263.42
252.64
228.67
197.33
166.94
145.03
135.95
140.20
155.38
178.47
206.36
236.65
265.89
289.40
301.81
298.74
279.19
245.98
205.06
163.14
125.68
95.56
72.74
56.30
44.74
36.99
32.40
30.56
29.99
29.19
26.15
19.50
9.18
-3.19
-14.90
-23.85
-29.79
-35.38
-44.46
-60.28
-83.56
-111.30
-137.70
-156.44
-162.93
-155.79
-136.83
-109.84
-78.78
-46.98
-16.15
13.07
40.79
67.41
92.87
116.63
137.54
154.26
165.63
171.27
170.64
163.50
149.75
130.03
106.14
81.08
59.13
44.76
41.76
51.72
73.33
102.82
134.29
161.33
179.16
185.24
179.79
164.87
143.07
116.43
86.70
55.59
25.40
-1.06
-21.20
-33.86
-40.12
-42.76
-45.15
-49.72
-57.38
-67.54
-79.22
-91.84
-105.13
-118.70
-130.97
-139.10
-139.16
-127.62
-102.91
-66.18
-21.56
25.40
68.98
104.93
131.54
149.25
159.71
164.53
164.65
160.45
152.60
142.69
133.50
127.80
127.29
131.45
137.63
142.24
141.98
135.21
122.20
104.58
84.29
63.08
42.66
25.44
14.79
14.34
26.79
52.33
87.84
127.60
164.75
193.77
212.22
220.61
221.59
217.72
210.20
198.89
182.93
162.19
137.89
112.08
86.93
63.85
42.94
23.43
4.35
-14.91
-34.61
-54.84
-75.73
-97.60
-120.63
-144.73
-169.50
-194.22
-217.76
-238.34
-253.78
-261.70
-260.49
-250.35
-233.69
-214.53
-197.22
-185.02
-178.63
-176.62
-176.33
-175.02
-171.41
-165.98
-160.42
-156.61
-155.27
-155.41
-155.15
-152.87
-148.48
-143.69
-141.26
-143.55
-150.90
-161.49
-171.95
-179.00
-180.51
-175.61
-164.32
-146.89
-123.75
-95.74
-64.34
-31.38
1.47
32.96
62.23
87.90
108.39
122.20
128.87
130.04
129.18
130.09
135.36
144.72
154.70
160.24
155.64
137.06
103.41
57.11
3.86
-48.65
-92.35
-120.72
-130.91
-125.37
-111.40
-98.90
-96.18
-106.35
-125.67
-145.20
-154.59
-147.09
-122.25
-85.68
-46.05
-11.08
15.03
32.17
42.15
47.31
49.54
50.42
52.79
60.63
77.21
103.79
137.66
172.44
200.67
216.10
216.65
204.45
184.52
162.09
141.39
124.48
111.47
101.17
91.65
81.31
68.97
53.96
35.86
13.92
-13.23
-47.50
-91.00
-143.99
-202.90
-261.85
-315.11
-359.60
-395.24
-423.80
-447.11
-465.10
-475.40
-470.81
-446.20
-402.19
-345.93
-287.47
-235.07
-193.33
-162.33
-139.53
-114.54
-79.92
-34.77
15.06
62.74
105.52
144.85
184.31
227.01
285.09
364.71
463.20
568.22
665.86
748.38
813.82
863.61
899.85
939.00
992.59
1063.08
1140.96
1214.22
1278.06
1333.57
1384.55
1340.19
1149.22
825.07
445.81
93.01
-190.65
-397.56
-539.70
-634.65
-699.28
-724.46
-713.37
-671.93
-614.80
-557.46
-505.74
-459.86
-417.74
-377.54
-325.77
-263.19
-191.28
-119.55
-76.94
-76.38
-114.75
-177.26
-248.46
-312.52
-361.00
-391.05
-408.03
-419.00
-423.09
-420.53
-411.44
-397.84
-380.67
-359.22
-331.34
-297.59
-258.82
-210.46
-151.42
-83.38
-11.69
55.88
115.15
164.68
203.65
216.21
194.61
141.11
67.71
2.59
-52.08
-97.85
-134.49
-162.92
-180.23
-181.89
-167.33
-139.63
-104.61
-70.80
-42.27
-20.38
-2.02
16.53
38.53
63.39
88.35
110.31
126.12
137.23
147.40
165.04
197.35
247.35
311.60
382.87
453.52
517.15
571.71
589.56
554.24
468.93
357.12
246.68
155.66
88.83
41.13
3.38
-34.31
-75.13
-117.85
-158.28
-192.15
-216.11
-228.73
-231.55
-228.21
-222.88
-214.77
-201.41
-181.06
-155.13
-127.43
-102.08
-81.85
-67.54
-58.22
-49.74
-38.50
-23.03
-5.13
11.52
23.60
29.59
29.83
25.94
21.46
19.57
21.96
28.45
37.26
46.60
55.58
64.09
72.75
82.71
94.98
109.94
127.11
144.70
161.22
175.46
186.71
194.66
198.91
198.80
192.75
184.04
173.45
161.74
149.57
137.55
126.27
116.23
107.76
100.91
95.88
91.89
88.36
84.74
80.54
75.31
68.86
61.01
51.75
41.49
30.33
18.71
7.12
-3.69
-12.98
-20.10
-24.63
-26.45
-25.73
-23.10
-19.54
-16.05
-13.79
-13.58
-16.10
-21.57
-29.60
-39.51
-50.29
-60.93
-70.53
-78.67
-85.43
-91.34
-97.05
-102.96
-109.17
-115.38
-120.87
-124.98
-127.40
-128.46
-128.89
-129.82
-132.26
-137.04
-144.49
-154.61
-167.08
-181.83
-198.92
-218.19
-239.58
-262.74
-287.30
-312.66
-337.98
-361.89
-382.37
-397.24
-404.28
-402.22
-391.03
-371.99
-347.15
-318.65
-287.81
-254.94
-220.02
-183.35
-146.53
-112.56
-85.25
-67.67
-60.81
-63.42
-72.21
-83.33
-93.31
-100.11
-103.01
-102.35
-99.60
-96.46
-95.07
-97.07
-103.45
-113.67
-125.87
-136.94
-143.19
-141.51
-129.71
-107.27
-75.48
-37.54
2.48
40.55
74.55
104.48
131.81
157.92
182.89
205.32
222.40
231.63
231.81
223.48
208.70
190.55
171.66
153.66
136.63
119.76
101.96
82.90
63.63
46.54
34.13
27.43
24.94
22.95
17.46
6.64
-8.20
-22.85
-31.90
-31.15
-19.21
1.89
27.85
53.39
74.18
87.65
93.07
91.30
83.68
71.66
56.70
40.31
24.01
9.69
-0.86
-6.39
-6.61
-2.40
4.79
13.48
22.56
31.51
39.96
47.43
53.08
55.80
54.74
49.94
42.79
35.68
31.46
32.26
38.61
49.31
61.87
73.51
81.90
85.80
84.88
79.42
70.14
57.87
43.60
28.42
13.40
-0.61
-12.82
-22.71
-29.91
-34.41
-36.33
-36.18
-34.93
-33.40
-32.59
-33.05
-35.15
-39.06
-44.38
-50.29
-55.26
-57.49
-55.18
-47.28
-33.72
-15.47
5.87
28.52
50.35
69.27
83.48
91.65
93.34
89.04
80.02
67.93
54.28
40.21
26.67
14.54
4.61
-2.91
-8.30
-12.60
-17.53
-24.64
-34.76
-47.71
-62.39
-77.13
-90.11
-99.68
-104.46
-103.49
-96.15
-82.27
-62.59
-38.91
-13.99
9.01
27.19
38.79
43.74
43.47
40.18
35.89
31.97
29.06
27.28
26.68
27.32
29.13
31.83
34.50
35.96
35.34
32.31
27.26
21.38
16.11
12.41
10.69
10.53
11.41
13.04
16.07
21.77
31.43
45.55
62.95
81.50
98.76
113.05
123.72
131.01
135.14
136.03
133.45
127.21
117.98
107.22
96.77
88.35
82.85
80.00
78.57
76.76
72.79
65.51
54.65
40.66
24.83
8.82
-5.65
-16.93
-23.42
-24.09
-18.36
-6.76
8.73
25.36
39.97
50.28
55.46
55.94
52.79
47.37
40.71
33.50
26.47
20.54
16.81
16.59
20.34
27.17
34.71
39.30
37.29
26.44
6.64
-19.92
-49.40
-77.85
-102.52
-122.72
-140.01
-157.17
-176.69
-199.69
-224.99
-248.97
-266.63
-273.27
-266.18
-245.92
-215.82
-181.02
-146.41
-115.43
-89.42
-68.21
-51.22
-37.92
-28.61
-23.62
-22.99
-26.08
-31.56
-37.98
-44.29
-49.98
-54.87
-59.01
-62.30
-64.69
-66.35
-67.90
-70.36
-74.84
-81.90
-90.91
-100.07
-106.68
-108.06
-102.43
-89.42
-70.29
-47.38
-23.85
-2.79
13.47
23.62
28.12
28.62
27.71
27.83
30.56
36.34
44.46
