1649859941.00
64.000000
-0.00
-0.00
-0.00
-0.00
-0.00
-0.00
-0.00
-0.00
-0.00
-0.00
0.00
0.01
0.01
-0.00
-0.03
-0.05
-0.05
0.00
0.13
0.36
0.66
1.01
1.37
1.72
2.06
2.40
2.79
3.24
3.80
4.42
5.06
5.66
6.20
6.68
7.15
7.68
8.31
9.14
10.09
11.04
11.88
12.56
13.14
13.76
14.65
15.96
17.91
20.32
22.90
25.38
27.58
29.57
31.68
34.32
37.81
42.54
48.15
54.10
59.83
64.97
69.58
74.14
79.34
85.71
93.76
103.00
112.62
121.73
129.77
136.75
143.30
150.75
157.77
166.64
177.95
191.79
206.97
220.57
228.25
225.36
208.53
176.87
132.76
80.05
23.07
-34.94
-92.44
-149.16
-205.23
-260.37
-313.74
-363.87
-409.83
-450.91
-486.50
-515.74
-537.23
-549.22
-549.96
-538.37
-514.21
-478.67
-433.88
-382.45
-327.02
-269.84
-212.63
-156.66
-102.95
-52.37
-5.90
35.58
71.43
101.35
125.50
144.38
158.69
169.15
176.37
180.75
182.57
182.07
179.51
175.23
169.65
163.18
156.15
148.81
141.30
133.69
126.02
118.33
110.69
103.16
95.80
88.68
81.83
75.25
68.95
62.95
57.25
51.86
46.78
42.03
37.59
33.45
29.61
26.07
22.81
19.83
17.11
14.67
12.48
10.54
8.83
7.35
6.07
4.97
4.05
3.27
2.62
2.09
1.65
1.30
1.01
0.79
0.61
0.47
0.37
0.29
0.23
0.20
0.17
0.16
0.16
0.17
0.19
0.22
0.25
0.29
0.33
0.37
0.42
0.46
0.50
0.54
0.60
0.67
0.76
0.84
0.90
0.92
0.88
0.80
0.73
0.70
0.76
0.90
1.09
1.30
1.46
1.56
1.63
1.71
1.86
2.15
2.56
3.05
3.51
3.87
4.08
4.18
4.30
4.59
5.15
5.98
6.95
7.81
8.34
8.45
8.24
8.02
8.17
8.96
10.38
12.11
13.62
14.38
14.14
13.05
11.64
10.53
10.13
10.34
10.47
9.51
6.54
1.20
-6.14
-14.35
-22.11
-28.43
-32.98
-36.20
-39.00
-42.26
-46.65
-52.48
-59.72
-67.65
-74.57
-77.73
-74.01
-61.40
-40.26
-13.93
12.27
33.01
45.14
48.79
46.73
42.64
39.14
36.86
34.83
31.64
26.75
20.72
14.89
10.39
7.60
5.96
4.51
2.39
-0.59
-3.86
-6.55
-7.85
-7.50
-6.10
-4.88
-5.21
-8.03
-13.47
-20.76
-28.60
-35.51
-40.43
-43.01
-43.72
-43.59
-43.80
-45.40
-49.05
-55.04
-62.88
-71.24
-78.11
-81.20
-78.52
-69.09
-53.18
-31.93
-8.29
14.28
32.92
46.07
53.61
56.40
55.58
52.06
46.35
38.57
29.04
18.41
7.62
-2.30
-10.57
-16.77
-20.84
-22.91
-23.11
-21.32
-17.27
-10.98
-3.00
5.37
12.27
15.75
14.30
7.28
-4.81
-20.57
-38.13
-55.75
-72.25
-87.21
-100.81
-113.63
-126.38
-139.61
-153.54
-167.77
-181.04
-191.18
-195.36
-190.91
-176.20
-151.38
-118.56
-81.24
-43.40
-8.45
21.35
45.10
63.03
76.15
85.93
93.99
101.95
111.29
123.21
138.41
156.78
177.07
196.99
213.67
224.66
228.84
226.84
220.68
212.77
204.81
197.29
189.66
181.10
171.18
159.96
147.75
134.60
120.21
104.23
86.74
68.43
50.50
34.14
19.95
7.67
-3.70
-15.36
-28.20
-42.24
-56.37
-68.42
-75.65
-75.44
-66.29
-48.52
-24.34
2.68
28.72
50.84
67.77
79.83
88.29
94.49
99.20
102.53
104.36
104.83
104.70
105.20
107.58
112.61
120.27
129.77
139.90
149.55
158.08
165.52
172.44
179.54
187.28
195.47
203.16
208.84
210.76
207.51
198.36
183.44
163.56
139.77
112.99
83.68
51.94
17.81
-18.67
-57.40
-98.26
-141.08
-185.24
-229.32
-270.98
-307.50
-336.60
-356.96
-368.34
-370.75
-363.62
-345.51
-314.98
-272.17
-220.28
-165.56
-115.93
-78.48
-57.32
-52.71
-61.78
-80.22
-103.84
-129.40
-154.56
-177.37
-195.86
-208.18
-213.18
-210.95
-203.00
-191.85
-180.13
-169.76
-161.47
-154.94
-149.27
-143.72
-138.19
-133.29
-130.00
-129.21
-131.27
-135.83
-141.76
-147.34
-150.41
-148.55
-139.46
-121.36
-93.60
-57.09
-14.34
31.00
74.96
114.24
146.80
172.01
190.22
202.14
208.49
209.93
207.43
202.46
196.87
192.24
189.24
187.23
184.54
179.37
170.72
158.97
145.66
132.87
122.21
114.32
108.70
104.11
99.03
92.23
83.02
71.40
57.96
43.72
29.73
16.77
5.04
-6.08
-17.85
-31.80
-49.20
-70.27
-93.88
-117.55
-138.07
-152.56
-159.42
-158.93
-153.05
-144.59
-135.97
-128.38
-121.43
-113.57
-102.90
-88.16
-69.27
-47.48
-24.97
-4.16
12.91
25.05
31.93
33.84
31.33
25.07
15.91
5.18
-5.09
-12.47
-14.63
-10.26
0.36
15.19
31.02
44.45
53.01
55.79
53.51
48.07
41.60
35.75
31.20
27.70
24.42
20.35
14.72
7.25
-1.72
-11.15
-19.42
-24.59
-24.87
-19.15
-7.47
8.95
28.04
47.47
65.29
80.27
91.94
100.36
105.84
108.73
109.36
108.04
105.16
101.13
96.30
90.93
85.06
78.61
71.48
63.69
55.47
47.31
39.87
33.77
29.35
26.45
24.41
22.29
19.25
14.83
9.16
2.79
-3.57
-9.34
-14.27
-18.42
-22.07
-25.57
-29.30
-33.71
-39.18
-45.76
-52.79
-58.77
-61.58
-59.21
-50.58
-36.01
-17.20
3.37
23.27
40.77
55.18
66.57
75.55
82.89
89.35
95.67
102.49
110.31
119.29
129.12
139.02
147.66
153.37
154.35
149.02
136.41
116.46
90.13
59.25
26.11
-7.09
-38.75
-68.09
-95.13
-120.36
-144.27
-167.00
-188.15
-206.95
-222.63
-234.71
-243.20
-248.53
-251.41
-252.59
-252.72
-252.31
-251.64
-250.55
-248.38
-243.84
-235.29
-221.11
-200.33
-173.13
-140.95
-106.26
-71.92
-40.48
-13.59
8.30
25.65
39.42
50.56
59.67
67.02
72.67
76.80
79.67
81.56
82.63
82.72
81.59
79.14
75.70
72.06
69.24
68.03
68.62
70.48
72.63
74.05
74.12
72.77
70.48
67.95
65.82
64.45
63.84
63.73
63.69
63.21
61.88
59.38
55.65
50.95
45.93
41.62
39.21
39.76
43.89
51.49
61.73
73.31
84.88
95.48
104.75
112.93
120.54
128.05
135.57
142.79
149.19
154.24
157.80
160.30
162.67
166.05
171.32
178.74
187.75
197.29
206.22
213.69
219.31
222.97
224.66
224.31
221.75
216.91
209.63
199.58
186.05
168.05
144.84
116.56
84.80
52.59
23.84
2.33
-9.32
-10.37
-1.96
13.36
32.62
53.24
73.60
92.75
109.87
123.53
131.49
131.20
120.94
100.67
72.42
39.80
6.80
-23.26
-48.38
-67.67
-80.93
-88.06
-88.97
-83.75
-73.08
-58.33
-41.41
-24.44
-9.33
2.53
10.32
13.71
12.77
7.85
-0.43
-11.32
-23.95
-37.43
-50.85
-63.28
-73.94
-82.33
-88.53
-93.33
-98.01
-103.88
-111.63
-120.86
-130.20
-137.87
-142.46
-143.57
-141.89
-138.82
-135.86
-134.08
-134.00
-135.67
-138.91
-143.40
-148.67
-153.94
-158.05
-159.82
-158.40
-153.64
-146.34
-137.92
-129.99
-123.74
-119.66
-117.46
-116.41
-115.72
-114.75
-113.12
-110.59
-107.06
-102.54
-97.22
-91.45
-85.74
-80.53
-76.06
-72.27
-68.90
-65.66
-62.36
-59.01
-55.72
-52.75
-50.33
-48.72
-48.09
-48.36
-49.07
-49.27
-47.74
-43.30
-35.27
-23.83
-9.99
4.69
18.66
30.81
40.75
48.70
55.11
60.28
64.19
66.53
67.01
65.58
62.55
58.52
54.09
49.61
45.05
40.01
34.03
26.83
18.59
9.91
1.57
-5.83
-12.14
-17.75
-23.41
-29.79
-37.27
-45.66
-54.32
-62.44
-69.31
-74.48
-77.84
-79.57
-80.17
-80.35
-81.02
-83.08
-87.00
-92.60
-98.76
-103.64
-105.16
-101.61
-92.28
-77.72
-59.60
-40.22
-21.81
-6.03
6.39
15.59
22.16
26.89
30.32
32.75
34.30
35.08
35.29
35.21
35.01
34.70
34.03
32.71
30.58
27.72
24.49
21.29
18.41
15.90
13.58
11.13
8.23
4.68
0.42
-4.43
-9.64
-14.98
-20.23
-25.27
-30.14
-35.03
-40.19
-45.86
-52.24
-59.23
-66.42
-73.02
-77.92
-79.96
-78.27
-72.58
-63.33
-51.60
-38.79
-26.26
-15.04
-5.68
1.71
7.34
11.54
14.63
16.82
18.24
18.97
19.23
19.28
19.36
19.58
19.82
19.81
19.29
18.21
16.82
15.60
15.00
15.11
15.54
15.54
14.34
11.57
7.46
2.74
-1.67
-5.17
-7.68
-9.64
-11.83
-14.98
-19.59
-25.78
-33.29
-41.47
-49.22
-55.14
-57.76
-56.02
-49.65
-39.31
-26.38
-12.53
0.77
12.47
22.01
29.22
34.18
37.15
38.58
39.02
39.03
38.97
38.93
38.72
38.01
36.54
34.30
31.53
28.65
26.12
24.18
22.76
21.46
19.63
16.68
12.24
6.41
-0.40
-7.53
-14.37
-20.55
-25.86
-30.39
-34.37
-38.26
-42.67
-48.20
-55.14
-63.08
-70.80
-76.53
-78.43
-75.31
-67.02
-54.49
-39.38
-23.48
-8.25
5.37
16.94
26.28
33.31
38.04
40.61
41.39
40.96
39.95
38.86
37.95
37.15
36.19
34.81
32.94
30.78
28.68
26.96
25.69
24.60
23.24
21.10
17.89
13.60
8.48
2.96
-2.52
-7.62
-12.29
-16.75
-21.50
-27.13
-34.16
-42.71
-52.28
-61.75
-69.51
-73.96
-73.90
-68.94
-59.52
-46.75
-32.12
-17.02
-2.68
10.09
20.79
29.18
35.27
39.24
41.50
42.45
42.52
41.96
40.90
39.41
37.52
35.25
32.61
29.60
26.30
22.89
19.65
16.83
14.49
12.39
10.02
6.77
2.27
-3.48
-10.07
-16.93
-23.55
-29.67
-35.42
-41.13
-47.42
-54.92
-64.04
-74.61
-85.61
-95.16
-101.02
-101.26
-94.95
-82.56
-65.73
-46.72
-27.67
-10.11
5.14
17.82
27.91
35.50
40.71
43.83
45.29
45.65
45.46
45.08
44.70
44.18
43.31
41.94
40.16
38.29
36.77
35.97
35.85
35.97
35.54
33.72
29.96
24.24
16.98
8.93
0.85
-6.70
-13.49
-19.70
-25.85
-32.67
-40.83
-50.68
-61.94
-73.45
-83.27
-89.10
-88.99
-82.07
-68.85
-51.20
-31.62
-12.54
4.37
18.37
29.52
38.31
45.27
50.81
55.17
58.46
60.79
62.18
62.54
61.81
59.94
57.05
53.46
49.64
46.12
43.30
41.31
39.87
38.37
36.07
32.34
27.01
20.32
12.90
5.39
-1.77
-8.55
-15.24
-22.42
-30.76
-40.75
-52.45
-65.18
-77.40
-86.93
-91.52
-89.56
-80.71
-65.91
-47.06
-26.29
-5.38
14.51
32.66
48.62
62.00
72.56
80.30
85.50
88.65
90.21
90.50
89.60
87.53
84.39
80.36
75.82
71.19
66.84
62.94
59.42
55.91
51.88
46.84
40.48
32.87
24.44
15.77
7.40
-0.42
-7.84
-15.34
-23.63
-33.42
-45.12
-58.44
-72.22
-84.38
-92.34
-93.76
-87.30
-73.20
-53.20
-30.03
-6.54
14.97
33.27
48.07
59.77
68.96
76.17
81.73
85.79
88.43
89.78
89.99
89.31
87.98
86.23
84.28
82.31
80.43
78.77
77.37
76.14
74.84
73.09
70.51
66.84
62.08
56.43
50.18
43.48
36.26
28.17
18.87
8.23
-3.49
-15.67
-27.53
-38.52
-48.55
-58.05
-67.92
-79.12
-92.29
-107.24
-122.69
-136.31
-145.23
-146.87
-139.79
-124.22
-102.01
-75.97
-49.04
-23.53
-0.82
18.55
34.50
47.16
56.72
63.51
68.08
71.13
73.33
75.16
76.73
77.84
78.14
77.30
75.26
72.31
69.01
66.05
63.89
62.63
61.85
60.85
58.89
55.45
50.42
44.04
36.82
29.28
21.86
14.73
7.79
0.74
-6.80
-15.10
-24.21
-33.86
-43.54
-52.72
-61.09
-68.73
-76.15
-84.20
-93.87
-105.85
-120.21
-135.99
-151.01
-162.29
-166.70
-162.03
-147.77
-125.36
-97.73
-68.31
-39.98
-14.55
7.31
25.59
40.53
52.29
61.01
66.95
70.64
72.76
73.95
74.56
74.66
74.05
72.57
70.20
67.22
64.17
61.65
60.14
59.73
60.05
60.40
59.93
58.01
54.37
49.17
42.85
35.93
28.92
22.09
15.47
8.87
1.91
-5.75
-14.28
-23.55
-33.20
-42.72
-51.62
-59.59
-66.54
-72.67
-78.49
-84.86
-92.75
-102.82
-114.79
-127.08
-136.88
-140.85
-136.35
-122.40
-100.17
-72.56
-43.13
-15.07
9.57
30.00
46.28
58.88
68.29
74.87
78.97
81.06
81.72
81.58
81.16
80.73
80.21
79.32
77.78
75.48
72.69
69.95
67.84
66.65
66.18
65.70
64.29
61.18
56.07
49.21
41.26
32.97
24.87
17.06
9.27
1.07
-7.86
-17.53
-27.69
-38.00
-48.13
-57.84
-66.96
-75.37
-83.09
-90.37
-97.91
-106.72
-117.74
-131.10
-145.59
-158.64
-166.91
-167.37
-158.38
-140.33
-115.60
-87.87
-60.79
-37.05
-17.97
-3.63
6.67
13.84
18.57
21.18
21.43
19.35
15.23
9.62
2.99
-4.38
-12.34
-20.87
-30.05
-40.30
-51.62
-63.82
-76.69
-90.20
-104.25
-118.29
-131.23
-141.42
-147.55
-148.17
-142.41
-130.64
-114.71
-97.52
-81.99
-70.42
-60.94
-54.59
-53.05
-56.92
-64.95
-74.55
-83.86
-91.34
-96.54
-99.08
-99.32
-97.34
-93.08
-86.65
-78.43
-69.05
-59.00
-48.68
-38.31
-28.47
-19.34
-10.88
-3.11
3.78
9.50
13.90
17.08
19.40
21.07
22.51
24.13
26.06
28.03
29.56
30.33
30.57
30.33
30.11
30.52
31.91
34.16
36.63
38.51
39.20
38.91
37.90
37.18
37.96
41.36
48.12
58.35
71.34
85.54
99.52
110.20
115.95
116.33
112.19
105.29
97.44
89.82
82.62
77.29
70.89
63.25
55.07
48.02
44.24
45.81
54.18
69.76
96.11
127.43
162.58
200.82
241.82
285.08
329.24
371.71
409.07
444.65
469.30
483.38
489.17
489.83
488.16
485.64
482.23
476.90
476.96
472.19
462.70
449.14
432.34
413.08
392.04
369.92
293.67
233.35
178.71
129.54
85.08
43.82
3.74
-37.24
-80.92
-128.57
-172.34
-221.63
-275.17
-330.28
-383.00
-428.73
-463.40
-484.52
-491.44
-478.31
-453.51
-417.68
-371.23
-315.28
-252.59
-187.78
-126.44
-73.53
-27.84
5.74
29.02
44.69
55.15
61.95
65.75
66.56
64.34
61.17
55.25
47.24
37.88
27.74
17.13
6.14
-5.19
-16.62
-27.07
-36.93
-46.09
-54.94
-64.33
-75.31
-88.58
-104.22
-121.55
-139.39
-156.48
-171.89
-185.22
-196.61
-206.69
-216.28
-226.01
-235.83
-244.58
-249.85
-248.47
-237.38
-214.81
-181.12
-138.95
-92.62
-46.87
-5.58
29.00
56.35
77.20
92.84
104.40
112.67
118.07
120.91
121.72
121.24
120.38
119.85
119.96
120.48
120.82
120.36
118.67
115.72
111.64
106.47
99.95
91.48
80.39
66.45
50.06
32.32
14.63
-1.82
-16.52
-29.84
-42.90
-57.08
-73.51
-92.52
-113.31
-133.76
-150.65
-160.39
-159.88
-147.66
-124.44
-93.16
-58.16
-23.93
6.09
30.27
48.73
62.76
73.94
83.52
92.02
99.44
105.44
109.69
112.03
112.61
111.85
110.28
108.47
106.97
106.21
106.63
108.56
112.14
117.20
123.17
129.08
133.87
136.70
137.16
135.40
131.85
126.89
120.74
113.41
104.86
95.13
84.21
71.81
57.25
39.73
18.88
-4.62
-28.75
-50.53
-67.01
-76.39
-78.67
-75.53
-69.62
-63.56
-59.24
-57.68
-59.07
-63.07
-69.07
-76.28
-83.90
-91.27
-98.10
-104.44
-110.55
-116.63
-122.72
-128.67
-134.38
-139.94
-145.74
-152.26
-159.87
-168.75
-178.75
-189.21
-198.84
-205.66
-207.34
-201.90
-188.45
-167.71
-141.74
-113.19
-84.28
-56.23
-29.32
-3.43
21.34
44.54
65.69
84.82
102.74
120.62
139.25
158.19
175.51
188.18
193.22
188.98
175.88
156.35
133.74
110.97
89.47
68.82
47.40
23.43
-4.07
-34.93
-68.13
-102.36
-136.70
-170.72
-204.14
-236.38
-266.21
-291.80
-311.20
-322.91
-326.44
-322.37
-312.09
-297.12
-278.64
-257.11
-232.53
-204.89
-174.69
-143.16
-112.09
-83.41
-58.76
-39.10
-24.66
-14.99
-9.20
-6.25
-5.14
-5.18
-6.06
-7.82
-10.72
-14.96
-20.47
-26.85
-33.50
-39.94
-46.12
-52.51
-60.13
-70.20
-83.79
-101.15
-121.34
-141.99
-159.54
-170.07
-170.33
-158.70
-135.64
-103.47
-65.43
-24.77
15.99
55.22
91.91
125.28
154.69
179.61
199.78
215.33
226.72
234.64
239.80
242.92
244.59
245.28
245.35
245.07
244.75
244.77
245.55
247.39
250.31
253.82
257.05
259.01
258.98
256.79
252.96
248.60
245.17
244.09
246.32
251.94
260.01
268.52
274.91
276.71
272.28
261.31
244.78
224.43
201.97
178.42
153.95
128.19
100.92
72.54
44.05
16.64
-9.11
-33.76
-59.07
-87.67
-122.54
-166.52
-221.57
-287.70
-361.84
-437.43
-505.31
-556.23
-583.93
-587.41
-571.08
-542.58
-509.49
-476.62
-445.31
-414.72
-383.98
-353.65
-325.62
-301.74
-282.35
-265.63
-248.39
-227.52
-201.33
-170.09
-135.91
-101.83
-70.89
-45.36
-26.30
-13.44
-5.31
0.07
4.42
8.44
11.41
11.41
6.08
-6.23
-25.61
-50.12
-76.17
-99.50
-116.23
-123.81
-121.40
-109.55
-89.61
-63.01
-30.78
6.45
47.97
92.63
138.55
183.17
223.73
257.92
284.75
305.19
322.45
341.21
365.92
398.49
436.59
473.53
500.10
507.73
491.53
451.74
393.15
323.04
248.92
177.04
112.15
57.77
16.56
-10.04
-22.39
-23.01
-16.24
-7.15
-0.15
2.10
-0.87
-7.92
-17.17
-27.21
-37.68
-49.20
-62.64
-78.09
-94.10
-107.75
-115.56
-114.82
-104.75
-86.90
-64.59
-41.65
-21.04
-4.11
9.52
21.24
32.49
43.97
55.36
65.46
72.71
75.78
73.88
67.13
56.55
44.02
31.99
22.93
18.60
19.52
24.76
32.23
39.50
44.60
46.50
45.14
41.08
34.99
27.52
19.25
10.93
3.42
-2.59
-7.01
-10.56
-14.75
-21.31
-31.42
-45.06
-60.68
-75.42
-85.83
-88.88
-82.82
-67.87
-46.04
-20.56
5.19
28.52
47.99
63.30
74.84
83.19
88.76
91.77
92.46
91.18
88.45
84.79
80.58
75.88
70.60
64.62
58.00
51.13
44.63
39.13
35.06
32.39
30.60
28.81
26.20
22.19
16.71
10.11
2.99
-4.02
-10.48
-16.18
-21.26
-26.15
-31.58
-38.38
-47.25
-58.35
-70.88
-82.99
-92.03
-95.26
-90.75
-78.13
-58.76
-35.37
-11.14
11.27
30.26
45.40
57.07
65.93
72.54
77.20
80.08
81.32
81.11
79.70
77.24
73.86
69.61
64.58
58.96
53.12
47.49
42.47
38.31
34.97
32.10
29.13
25.49
20.82
15.14
8.80
2.31
-3.93
-9.72
-15.11
-20.15
-24.78
-28.85
-32.29
-35.38
-38.83
-43.48
-49.69
-56.72
-62.44
-63.76
-57.59
-42.02
-17.24
14.24
48.11
79.39
103.82
118.97
124.69
122.92
116.95
110.24
105.53
103.93
104.44
103.98
97.98
81.89
53.00
12.06
-36.36
-85.03
-126.51
-155.70
-171.40
-175.98
-173.60
-167.96
-160.88
-152.20
-140.84
-126.18
-108.78
-90.47
-73.66
-60.49
-52.23
-49.11
