1649855550.00
64.000000
-0.00
-0.00
-0.00
-0.00
-0.00
-0.00
-0.00
-0.00
-0.00
-0.00
0.00
0.01
0.01
-0.00
-0.03
-0.05
-0.05
0.00
0.13
0.36
0.66
1.01
1.37
1.72
2.06
2.40
2.79
3.24
3.80
4.42
5.06
5.66
6.20
6.68
7.15
7.68
8.31
9.14
10.09
11.04
11.88
12.56
13.14
13.76
14.65
15.96
17.91
20.32
22.90
25.38
27.58
29.57
31.68
34.32
37.81
42.54
48.15
54.10
59.83
64.97
69.58
74.14
79.34
85.71
93.76
103.00
112.62
121.73
129.77
136.75
143.30
150.75
157.77
166.64
177.95
191.79
206.97
220.57
228.25
225.36
208.53
176.87
132.76
80.05
23.07
-34.94
-92.44
-149.16
-205.23
-260.37
-313.74
-363.87
-409.83
-450.91
-486.50
-515.74
-537.23
-549.22
-549.96
-538.37
-514.21
-478.67
-433.88
-382.45
-327.02
-269.84
-212.63
-156.66
-102.95
-52.37
-5.90
35.58
71.43
101.35
125.50
144.38
158.69
169.15
176.37
180.75
182.57
182.07
179.51
175.23
169.65
163.18
156.15
148.81
141.30
133.69
126.02
118.33
110.69
103.16
95.80
88.68
81.83
75.25
68.95
62.95
57.25
51.86
46.78
42.03
37.59
33.45
29.61
26.07
22.81
19.83
17.11
14.67
12.48
10.54
8.83
7.35
6.07
4.97
4.05
3.27
2.62
2.09
1.65
1.30
1.01
0.79
0.61
0.47
0.37
0.29
0.23
0.19
0.17
0.15
0.15
0.17
0.18
0.21
0.24
0.27
0.31
0.34
0.38
0.42
0.45
0.49
0.52
0.55
0.58
0.61
0.65
0.70
0.76
0.83
0.89
0.94
0.99
1.04
1.11
1.21
1.36
1.55
1.75
1.93
2.09
2.22
2.36
2.54
2.79
3.12
3.53
3.96
4.37
4.75
5.07
5.39
5.77
6.27
6.91
7.65
8.40
9.04
9.50
9.80
10.04
10.40
11.02
11.92
13.00
13.97
14.50
14.32
13.32
11.61
9.39
6.88
4.14
1.01
-2.83
-7.71
-13.68
-20.38
-27.13
-33.07
-37.48
-40.04
-40.91
-40.57
-39.58
-38.32
-36.90
-35.31
-33.58
-31.77
-29.81
-27.19
-23.18
-17.27
-9.70
-1.81
4.53
7.82
7.98
6.62
6.40
9.67
17.31
28.24
40.12
50.47
57.77
61.74
63.05
62.46
60.44
57.04
52.18
46.03
39.03
31.93
25.58
20.73
17.82
16.94
17.73
19.68
22.38
25.69
29.68
34.52
40.12
45.91
51.12
55.33
59.08
64.11
72.40
84.93
100.44
115.31
124.61
124.01
111.51
87.92
57.79
27.52
2.81
-13.38
-21.31
-23.48
-22.99
-22.33
-23.13
-26.57
-34.01
-46.82
-65.47
-88.58
-112.70
-133.08
-145.15
-145.87
-134.54
-112.80
-84.01
-52.18
-21.13
6.14
27.65
42.39
50.16
51.27
46.40
36.64
23.54
9.29
-3.69
-13.36
-18.83
-20.73
-20.84
-21.18
-22.82
-25.09
-25.73
-21.85
-11.32
6.25
29.23
54.61
79.02
99.72
115.12
124.71
128.81
128.14
123.83
117.26
110.03
103.50
98.32
94.06
89.27
82.08
70.98
55.59
36.81
16.61
-2.59
-18.58
-29.79
-35.51
-35.91
-31.98
-25.41
-18.29
-12.74
-10.41
-12.08
-17.48
-25.43
-34.07
-41.39
-45.67
-46.05
-42.78
-37.25
-31.53
-27.71
-27.27
-30.65
-37.31
-46.04
-55.46
-64.42
-72.15
-78.20
-82.20
-83.79
-82.57
-78.36
-71.30
-62.03
-51.50
-40.68
-30.35
-20.87
-12.23
-4.25
3.15
9.92
15.78
20.39
23.51
24.96
24.61
22.25
17.55
10.11
-0.36
-13.72
-29.00
-44.33
-57.10
-64.71
-65.43
-58.96
-46.69
-31.10
-15.00
-0.74
10.26
17.49
21.16
21.77
19.98
16.50
12.08
7.48
3.40
0.26
-1.94
-3.70
-5.89
-9.45
-15.01
-22.66
-31.91
-42.01
-52.37
-62.80
-73.44
-84.42
-95.53
-105.98
-114.76
-121.13
-125.07
-127.52
-130.01
-134.11
-140.77
-149.93
-160.35
-169.84
-175.49
-174.13
-162.92
-140.14
-106.03
-63.12
-15.95
29.95
69.58
99.69
119.22
128.92
130.38
125.15
114.44
99.43
81.84
64.12
48.91
38.27
32.82
31.52
32.10
32.05
29.49
23.68
15.11
4.95
-5.47
-15.22
-23.91
-31.71
-39.09
-46.58
-54.59
-63.21
-72.16
-80.69
-87.53
-90.98
-89.32
-81.26
-66.55
-46.29
-22.74
1.21
22.83
40.22
52.61
60.17
63.61
63.78
61.42
57.17
51.60
45.29
38.78
32.44
26.38
20.48
14.43
7.91
0.69
-7.23
-15.58
-23.98
-32.02
-39.42
-46.21
-52.70
-59.36
-66.71
-75.24
-85.32
-97.11
-110.27
-123.62
-135.03
-141.70
-140.93
-131.18
-112.77
-88.09
-60.77
-34.53
-12.03
5.70
19.03
28.96
36.36
41.64
44.87
46.23
46.32
46.10
46.49
47.93
50.20
52.58
54.29
54.88
54.38
53.12
51.44
49.47
47.08
44.08
40.33
35.84
30.65
24.74
17.98
10.15
1.01
-9.41
-20.59
-31.29
-39.64
-43.44
-40.85
-31.08
-14.83
5.78
27.81
48.36
65.37
77.82
85.66
89.32
89.36
86.29
80.66
73.19
64.86
56.79
49.90
44.70
41.06
38.32
35.58
32.10
27.53
22.00
15.93
9.81
3.93
-1.65
-7.13
-12.70
-18.58
-24.98
-32.16
-40.42
-49.87
-60.06
-69.70
-76.77
-78.95
-74.42
-62.56
-44.26
-21.74
2.29
25.23
45.23
61.28
72.92
80.11
82.91
81.61
76.76
69.28
60.39
51.43
43.64
37.84
34.29
32.55
31.72
30.72
28.63
25.08
20.26
14.78
9.30
4.21
-0.49
-5.16
-10.35
-16.68
-24.67
-34.58
-46.13
-58.31
-69.24
-76.55
-77.94
-72.00
-58.76
-39.87
-18.04
3.68
22.79
37.73
47.91
53.43
54.72
52.40
47.24
40.23
32.58
25.50
19.95
16.33
14.43
13.49
12.54
10.78
7.80
3.69
-1.04
-5.76
-9.95
-13.44
-16.43
-19.57
-23.72
-29.70
-38.04
-48.62
-60.41
-71.52
-79.44
-81.72
-76.71
-64.13
-45.31
-22.72
0.67
22.25
40.22
53.71
62.53
66.83
66.98
63.57
57.56
50.25
43.07
37.15
33.11
30.85
29.79
29.08
28.01
26.19
23.66
20.77
17.93
15.46
13.33
11.05
7.82
2.69
-5.06
-15.60
-28.29
-41.62
-53.36
-61.05
-62.50
-56.53
-43.31
-24.43
-2.45
19.78
39.82
56.13
68.07
75.64
79.14
78.95
75.48
69.49
62.02
54.44
48.08
43.78
41.62
40.90
40.38
38.86
35.59
30.54
24.33
17.95
12.18
7.40
3.40
-0.46
-5.01
-10.98
-18.69
-27.86
-37.44
-45.76
-50.81
-50.81
-44.75
-32.79
-16.28
2.62
21.51
38.29
51.47
60.19
64.07
63.12
57.73
48.68
37.22
24.89
13.22
3.36
-4.17
-9.57
-13.61
-17.28
-21.37
-26.21
-31.71
-37.50
-43.19
-48.65
-54.07
-59.89
-66.69
-75.02
-85.11
-96.81
-109.31
-121.17
-130.52
-135.47
-134.58
-127.37
-114.41
-97.28
-78.16
-59.44
-43.28
-31.31
-24.40
-22.55
-24.96
-30.22
-36.52
-41.94
-44.80
-43.91
-38.84
-30.01
-18.54
-5.88
6.63
18.14
28.33
37.24
44.86
50.92
54.73
55.49
52.52
45.69
35.63
23.87
12.66
4.54
1.72
5.41
15.47
30.44
47.99
65.79
81.85
94.64
103.08
106.64
105.28
99.59
90.67
80.00
69.32
60.02
52.70
47.14
42.57
38.11
33.19
27.67
21.79
16.47
12.41
9.68
7.53
4.79
0.34
-6.44
-15.53
-25.96
-34.71
-38.52
-35.23
-24.67
-8.23
11.79
32.91
52.87
69.98
85.95
102.51
119.65
135.03
145.70
150.00
148.19
142.02
133.95
130.40
136.03
151.11
171.03
189.66
202.65
208.48
207.97
203.43
203.35
215.48
243.26
284.33
333.56
385.89
437.14
483.83
489.68
432.94
318.78
178.67
46.59
-58.88
-134.81
-185.91
-218.31
-237.14
-240.95
-228.90
-204.16
-174.95
-149.53
-132.50
-124.04
-121.51
-121.67
-118.12
-107.03
-89.24
-70.89
-58.45
-55.39
-61.56
-74.53
-91.70
-109.45
-127.55
-143.79
-161.82
-186.60
-221.50
-266.64
-318.11
-368.05
-404.80
-417.23
-398.90
-351.92
-285.45
-212.75
-146.93
-97.23
-66.98
-53.34
-49.73
-48.79
-45.43
-37.04
-23.53
-6.85
10.00
24.03
33.21
37.09
36.41
32.07
24.98
15.82
5.25
-5.83
-16.30
-25.18
-31.99
-36.87
-40.29
-42.22
-41.76
-37.40
-27.69
-12.15
8.26
31.27
53.92
73.38
87.71
96.14
98.97
97.37
92.96
87.55
82.77
79.67
78.56
78.85
79.33
78.57
75.37
69.17
60.14
49.08
37.07
25.15
13.96
3.58
-6.39
-16.73
-28.18
-41.12
-55.25
-69.38
-81.58
-89.54
-91.24
-85.61
-72.96
-55.04
-34.49
-14.09
3.93
18.34
28.91
35.94
39.89
41.11
39.81
36.32
31.23
25.50
20.18
16.08
13.44
11.83
10.33
7.95
4.10
-1.19
-7.31
-13.41
-18.86
-23.51
-27.80
-32.51
-38.41
-46.00
-55.39
-66.20
-77.55
-88.05
-95.86
-98.96
-95.61
-85.00
-67.62
-45.37
-21.09
2.24
22.26
37.69
48.29
54.60
57.41
57.48
55.49
52.06
47.82
43.40
39.28
35.78
33.01
30.93
29.34
27.95
26.31
23.89
20.21
14.95
8.14
0.14
-8.46
-17.03
-25.12
-32.57
-39.58
-46.59
-54.24
-63.17
-73.79
-85.87
-98.24
-108.72
-114.58
-113.27
-103.37
-85.25
-61.03
-34.03
-7.72
15.22
33.36
46.42
54.84
59.23
60.22
58.52
55.08
51.07
47.66
45.66
45.15
45.54
45.81
45.03
42.75
39.19
35.09
31.28
28.28
26.01
23.75
20.52
15.52
8.55
0.14
-8.63
-16.59
-23.03
-27.97
-32.17
-36.85
-43.26
-52.17
-63.48
-75.95
-87.35
-94.83
-95.67
-88.21
-72.48
-50.36
-25.03
0.05
22.17
39.91
53.13
62.41
68.42
71.60
72.21
70.61
67.49
63.77
60.39
57.98
56.57
55.78
54.98
53.60
51.43
48.55
45.27
41.88
38.54
35.14
31.34
26.70
20.79
13.41
4.79
-4.48
-13.57
-21.63
-28.15
-33.18
-37.30
-41.50
-46.84
-54.14
-63.57
-74.52
-85.50
-94.28
-98.39
-95.69
-85.13
-67.20
-43.96
-18.55
5.87
26.89
43.37
55.37
63.59
68.74
71.27
71.34
69.16
65.25
60.48
55.85
52.13
49.60
48.06
46.97
45.74
43.92
41.32
37.94
33.96
29.61
25.12
20.58
15.97
11.13
5.82
-0.12
-6.68
-13.62
-20.56
-27.13
-33.10
-38.49
-43.54
-48.71
-54.50
-61.53
-70.26
-80.96
-93.21
-105.74
-116.29
-122.04
-120.40
-109.99
-91.28
-66.61
-39.46
-13.40
8.93
26.33
38.80
47.05
51.91
54.03
53.92
52.14
49.44
46.63
44.38
42.91
41.97
40.90
38.95
35.68
31.17
26.08
21.42
18.12
16.60
16.53
16.91
16.55
14.48
10.39
4.68
-1.76
-8.04
-13.58
-18.32
-22.72
-27.46
-33.29
-40.81
-50.41
-62.00
-74.86
-87.46
-97.49
-102.33
-99.71
-88.62
-69.72
-45.35
-18.83
6.56
28.35
45.39
57.59
65.43
69.48
70.17
68.00
63.72
58.43
53.40
49.62
47.47
46.60
46.09
44.96
42.64
39.12
34.93
30.75
27.05
23.80
20.50
16.41
10.97
4.09
-3.83
-11.98
-19.53
-25.94
-31.19
-35.73
-40.35
-45.98
-53.41
-63.01
-74.39
-86.25
-96.38
-102.15
-101.21
-92.33
-75.91
-53.92
-29.33
-5.24
15.99
33.06
45.73
54.35
59.53
61.77
61.56
59.46
56.25
52.79
49.90
47.98
46.94
46.17
44.97
42.84
39.81
36.40
33.30
30.94
29.20
27.38
24.56
20.05
13.72
6.10
-1.96
-9.59
-16.33
-22.17
-27.61
-33.44
-40.43
-49.15
-59.57
-70.86
-81.31
-88.59
-90.48
-85.52
-73.62
-56.15
-35.40
-13.96
6.10
23.45
37.49
47.97
54.77
57.92
57.74
55.02
51.01
47.07
44.24
42.89
42.67
42.76
42.27
40.66
37.89
34.33
30.53
26.87
23.31
19.43
14.53
8.03
-0.24
-9.90
-20.12
-29.91
-38.58
-46.01
-52.51
-58.88
-66.10
-75.10
-86.30
-99.34
-112.87
-124.68
-132.06
-132.44
-124.35
-108.09
-85.81
-60.84
-36.65
-15.90
0.02
10.88
17.59
21.23
22.54
21.75
18.80
13.61
6.10
-3.72
-15.70
-28.48
-40.37
-49.84
-55.86
-57.66
-54.40
-45.37
-30.50
-10.87
12.74
38.30
62.40
81.21
92.52
96.79
96.52
94.44
92.13
92.44
97.05
105.74
116.52
127.03
135.58
141.10
142.75
140.48
139.31
145.46
163.24
192.90
231.51
274.73
318.15
357.94
369.34
336.74
263.27
170.76
83.22
13.53
-37.07
-72.88
-99.25
-120.06
-133.67
-137.59
-131.77
-119.99
-106.78
-97.02
-92.80
-93.99
-99.04
-103.33
-103.17
-97.91
-90.14
-83.23
-79.20
-77.78
-77.72
-77.82
-75.90
-71.00
-64.04
-57.41
-53.36
-52.95
-55.77
-60.74
-66.51
-70.74
-71.18
-66.46
-56.67
-43.15
-27.99
-13.36
-1.09
7.74
13.20
15.95
16.75
16.04
14.00
10.81
6.93
3.07
0.05
-1.48
-1.33
0.14
2.05
3.46
3.76
3.04
2.01
1.62
2.50
4.49
6.62
7.61
6.51
3.23
-1.21
-5.01
-6.19
-3.22
4.48
16.42
31.08
46.28
59.79
70.11
77.21
82.82
90.10
102.52
122.53
150.30
183.14
216.01
242.91
258.94
261.72
252.10
233.28
209.19
182.73
154.81
124.37
89.43
48.38
1.24
-49.74
-100.19
-144.32
-176.41
-192.32
-190.83
-174.24
-147.71
-117.81
-90.69
-70.83
-60.77
-61.38
-72.27
-91.90
-117.37
-144.51
-168.50
-185.23
-192.63
-191.24
-183.81
-174.13
-165.49
-159.60
-156.24
-153.64
-149.25
-140.76
-126.83
-107.50
-83.92
-57.93
-31.45
-6.06
17.06
36.96
52.74
63.48
68.37
67.10
60.20
49.06
35.78
22.67
11.70
4.14
0.35
-0.04
2.06
5.62
9.71
13.67
17.11
19.99
22.45
24.79
27.16
29.33
30.57
29.77
25.95
18.66
8.38
-3.74
-16.29
-28.11
-38.60
-47.65
-55.35
-61.65
-66.24
-68.59
-68.16
-64.52
-57.42
-46.82
-33.01
-16.74
0.70
17.60
32.27
43.42
50.51
53.74
53.82
51.65
48.13
44.04
39.95
36.04
31.85
26.07
16.80
2.25
-18.59
-45.63
-78.10
-115.22
-156.57
-201.64
-248.73
-294.11
-332.23
-357.09
-364.42
-353.31
-326.76
-290.64
-252.06
-217.47
-191.61
-176.73
-172.43
-175.77
-181.91
-185.35
-181.60
-168.56
-147.08
-120.30
-92.41
-67.23
-47.36
-33.96
-27.00
-25.55
-27.98
-32.11
-35.53
-36.06
-32.40
-24.48
-13.41
-0.92
11.43
22.86
33.66
45.03
58.47
75.16
95.29
117.66
139.85
158.70
171.37
176.22
173.45
164.90
153.26
141.01
129.39
118.19
106.14
91.94
75.26
57.33
40.80
28.96
24.58
28.94
41.36
59.47
80.08
100.19
117.83
132.21
143.42
151.89
157.87
161.37
162.38
161.15
158.37
154.91
151.53
148.53
145.72
142.54
138.54
133.62
128.14
122.71
117.78
113.37
108.90
103.46
96.18
87.03
76.55
65.75
55.70
47.14
40.29
34.69
29.24
22.49
13.44
1.68
-12.34
-27.13
-40.25
-48.77
-50.15
-43.16
-28.38
-7.36
17.19
42.06
64.34
82.19
95.18
103.92
109.39
112.50
115.68
120.61
127.40
134.57
140.27
143.41
143.75
141.57
137.30
135.21
138.53
147.51
159.05
169.04
174.65
174.93
170.33
162.17
158.40
165.45
184.73
211.83
240.21
264.98
283.97
296.92
304.65
316.43
339.88
376.87
422.90
471.76
519.58
564.95
606.87
593.59
494.66
316.94
104.06
-95.09
-252.32
-361.62
-429.78
-468.19
-487.79
-489.27
-472.09
-439.16
-398.52
-359.31
-327.51
-305.11
-291.85
-286.21
-280.43
-268.02
-247.51
-222.99
-200.33
-183.26
-172.70
-168.70
-170.16
-172.40
-171.17
-165.45
-158.10
-153.58
-155.39
-165.39
-186.17
-212.02
-236.46
-253.45
-259.96
-257.11
-248.53
-237.93
-227.50
-219.50
-213.90
-209.32
-203.92
-197.26
-190.56
-185.22
-181.43
-165.34
-130.36
-79.11
-22.46
28.42
66.74
90.54
101.67
104.26
103.23
100.65
97.62
94.04
89.69
84.31
77.66
70.50
63.95
59.08
54.76
49.83
43.42
35.64
27.25
19.26
12.70
8.39
6.68
6.35
6.02
5.09
3.30
0.71
-2.53
-6.21
-10.03
-13.49
-16.33
-17.85
-16.98
-12.67
-4.51
6.92
20.26
33.89
46.58
57.75
67.57
76.44
84.38
90.73
94.32
94.12
89.91
82.56
73.72
65.14
57.96
52.33
47.64
43.09
38.22
33.13
28.28
24.03
20.29
16.37
11.42
4.82
-3.34
-12.26
-20.67
-27.35
-31.62
-33.64
-34.47
-35.82
-39.55
-47.15
-59.18
-74.89
-92.20
-107.98
-118.82
-122.03
-116.38
-102.54
-82.73
-60.10
-37.75
-17.94
-1.71
11.10
21.43
30.32
38.43
45.79
51.86
55.98
57.82
57.57
55.97
53.88
51.86
49.95
47.72
44.67
40.61
35.79
30.75
25.97
21.59
17.34
12.74
7.41
1.32
-5.12
-11.28
-16.63
-21.10
-25.08
-29.38
-34.85
-42.08
-51.26
-62.22
-74.55
-87.55
-100.11
-110.59
-116.82
-116.70
-108.86
-93.42
-72.18
-48.19
-24.81
-4.71
10.83
21.98
29.82
35.67
40.42
44.40
47.56
49.73
51.01
51.70
52.20
52.76
53.30
53.48
52.89
51.34
48.99
46.31
43.81
41.74
39.89
37.62
34.12
28.74
21.37
12.54
3.25
-5.42
-12.75
-18.65
-23.71
-28.93
-35.41
-43.96
-54.90
-67.86
-81.64
-94.26
-103.28
-106.37
-101.98
-89.98
-71.80
-50.03
-27.65
-7.15
9.97
23.33
33.31
40.62
45.88
49.50
51.71
52.65
52.44
51.25
49.21
46.42
42.93
38.76
34.08
29.21
24.55
20.45
17.00
13.93
10.61
6.21
0.05
-8.15
-18.07
-28.97
-39.90
-50.04
-58.94
-66.65
-73.58
-80.32
-87.40
-95.04
-102.93
-110.06
-114.82
-115.24
-109.54
-96.71
-76.93
-51.64
-23.23
5.61
32.54
55.94
75.03
89.66
99.98
106.28
108.91
108.36
105.28
100.41
94.51
88.16
81.72
75.41
69.38
63.85
59.05
55.08
51.72
48.48
44.67
39.68
33.25
25.58
17.21
8.86
1.11
-5.83
-12.07
-18.10
-24.62
-32.31
-41.59
-52.24
-63.24
-72.78
-78.68
-79.00
-72.69
-60.02
-42.50
-22.45
-2.31
15.91
30.95
42.26
49.85
54.01
55.23
54.14
51.48
47.97
44.16
40.37
36.69
33.09
29.62
26.45
23.84
21.92
20.58
19.32
17.41
14.19
9.30
2.90
-4.34
-11.47
-17.65
-22.40
-25.82
-28.52
-31.48
-35.75
-42.14
-50.81
-61.02
-71.03
-78.36
-80.44
-75.40
-62.82
-43.91
-21.25
2.06
23.24
40.45
53.02
61.13
65.49
66.89
66.09
63.80
60.62
57.09
53.52
50.00
46.39
42.46
38.08
33.25
28.16
23.09
18.23
13.62
9.11
4.50
-0.46
-5.91
-11.88
-18.32
-25.10
-32.15
-39.53
-47.55
-56.75
-67.69
-80.61
-94.97
-109.24
-121.02
-127.62
-126.93
-118.19
-102.31
-81.61
-59.09
-37.51
-18.83
-4.00
6.87
14.02
17.87
18.85
17.53
14.64
11.06
7.63
4.92
3.23
2.56
2.83
3.92
5.82
8.56
12.21
16.84
22.46
29.00
36.26
43.90
51.50
58.60
64.80
69.81
73.41
75.45
75.80
74.29
70.85
65.68
59.40
53.15
48.33
46.35
48.08
53.63
62.17
72.27
82.30
90.87
97.16
100.81
101.71
99.66
94.24
84.92
71.35
53.81
33.46
12.38
-6.89
-21.98
-31.36
-34.77
-33.24
-28.71
-23.37
-19.04
-16.75
-16.63
-18.08
-20.14
-21.76
-22.24
-21.39
-19.64
-17.94
-17.42
-19.04
-23.27
-29.98
-38.45
-47.44
-55.26
-59.86
-59.09
-51.08
-34.93
-11.14
18.18
49.81
80.34
107.19
129.11
146.10
158.75
167.42
171.82
171.15
164.65
152.13
134.22
112.29
87.98
62.81
37.95
14.32
-7.34
-26.24
-41.69
-53.28
-61.11
-65.81
-68.45
-70.12
-71.69
-73.50
-75.44
-77.04
-77.77
-77.26
-75.47
-72.69
-69.41
-66.07
-62.79
-59.20
-54.50
-47.82
-38.66
-27.33
-15.02
-3.49
5.58
11.26
13.73
14.20
14.37
15.72
18.98
24.00
29.96
35.83
40.82
44.55
47.03
48.56
49.56
50.47
51.64
53.12
54.52
54.82
52.49
45.83
33.60
15.59
-7.15
-32.45
-57.51
-79.75
-97.36
-109.73
-117.28
-121.10
-122.20
-120.94
-116.84
-108.80
-95.80
-77.62
-55.35
-31.28
-8.34
10.85
24.74
33.26
37.50
39.15
39.76
40.37
41.46
43.22
45.81
49.47
54.42
60.65
67.77
75.04
81.58
86.61
89.74
91.01
90.80
89.60
87.75
85.20
81.41
75.51
66.46
53.39
35.87
14.11
-10.86
-37.10
-61.90
-82.15
-94.96
-98.43
-92.28
-78.19
-59.43
-40.14
-24.11
-13.84
-9.84
-10.68
-13.71
-16.06
-15.64
-11.79
-5.25
2.38
9.37
14.43
16.83
16.22
12.40
5.30
-4.82
-17.12
-30.06
-41.74
-50.43
-55.20
-56.27
-54.82
-52.48
-50.64
-49.97
-50.38
-51.36
-52.42
-53.42
-54.49
-55.65
-56.45
-55.65
-51.58
-42.68
-28.22
-8.73
14.11
37.82
59.76
77.57
89.48
94.42
92.19
83.53
70.25
55.12
41.42
32.23
29.48
33.27
41.77
51.67
59.17
61.06
55.50
42.30
22.68
-1.32
-27.40
-53.46
-77.86
-99.46
-117.70
-132.56
-144.52
-154.32
-162.57
-169.45
-174.47
-176.56
-174.40
-166.96
-153.98
-136.16
-115.13
-92.95
-71.64
-52.66
-36.67
-23.65
-13.03
-4.13
3.64
10.72
17.40
23.89
30.31
36.66
42.72
48.09
52.38
55.41
57.32
58.57
59.73
61.26
63.34
65.78
68.02
68.99
67.19
60.79
48.32
29.51
5.98
-18.85
-40.72
-55.98
-62.89
-61.93
-55.19
-45.13
-33.62
-21.63
-9.64
1.83
11.95
19.87
25.24
28.43
30.44
32.24
34.24
36.09
36.94
36.01
33.14
28.91
24.47
21.07
19.50
19.80
21.25
22.71
23.04
21.54
18.07
12.95
6.66
-0.44
-8.35
-17.34
-27.90
-40.28
-54.24
-68.75
-81.95
-91.53
-95.26
-91.78
-81.10
-64.70
-45.15
-25.32
-7.58
6.65
17.01
23.87
27.88
29.65
29.56
27.97
25.20
21.74
18.10
14.71
11.75
9.11
6.43
3.28
-0.61
-5.22
-10.21
-15.01
-19.02
-21.79
-23.22
-23.56
-23.36
-23.39
-24.42
-27.14
-31.88
-38.49
-46.18
-53.55
-58.88
-60.49
-57.34
-49.25
-37.05
-22.28
-6.74
7.96
20.74
30.99
38.52
43.25
45.18
44.45
41.50
37.08
32.25
28.00
24.97
23.18
22.03
20.59
18.06
14.10
8.96
3.27
-2.22
-7.07
-11.32
-15.35
-19.73
-24.90
-31.09
-38.33
-46.42
-54.92
-63.05
-69.61
-73.03
-71.73
-64.70
-51.94
-34.84
-15.65
3.08
19.18
31.42
39.54
44.07
45.91
45.99
44.98
43.46
41.88
40.46
39.07
37.33
34.74
30.95
26.07
20.55
15.55
12.44
12.19
14.77
18.97
22.67
23.67
22.14
18.70
15.04
13.45
15.57
21.30
28.82
35.49
39.38
40.15
38.86
37.44
37.40
38.89
40.56
40.47
36.90
28.93
16.39
-0.73
-21.57
-43.90
-63.78
-76.20
-76.88
-64.62
-42.61
-17.65
2.52
12.91
13.21
7.17
-0.09
-4.95
-6.70
-6.94
-6.86
-7.07
-6.74
-4.50
0.12
5.77
9.79
9.68
4.62
-3.78
-12.28
-17.02
-15.25
-6.32
8.22
25.40
41.94
55.33
64.43
69.44
71.64
72.63
73.69
75.25
77.05
78.56
79.51
80.22
81.32
83.46
86.76
90.64
94.04
95.79
94.99
91.08
83.79
72.98
58.62
40.77
19.54
-5.02
-32.98
-64.35
-98.67
-134.53
-169.42
-200.10
-223.40
-237.08
-240.35
-233.92
-219.53
-199.37
-175.51
-149.71
-123.42
-97.98
-74.70
-54.94
-39.83
-29.98
-25.19
-24.39
-25.94
-28.04
-29.30
-29.12
-27.67
-25.61
-23.66
-22.22
-21.35
-20.89
-20.82
-21.39
-23.15
-26.79
-32.78
-41.29
-52.08
-64.54
-77.69
-90.08
-99.84
-104.88
-103.34
-94.24
-77.81
-55.65
-30.28
-4.50
19.33
39.72
56.08
68.47
77.31
83.08
86.33
87.68
87.97
88.18
89.18
91.49
94.99
98.88
101.98
103.15
101.74
97.78
91.96
85.29
78.69
72.76
67.62
62.98
58.26
52.75
45.85
37.35
27.69
18.02
10.00
5.32
5.06
9.31
17.05
26.50
35.66
42.88
47.07
47.80
45.06
39.20
30.86
21.01
10.85
1.53
-6.07
-11.67
-15.56
-18.45
-21.19
-24.38
-28.31
-32.87
-37.68
-42.24
-46.01
-48.49
-49.25
-47.98
-44.69
-39.81
-34.35
-29.82
-27.82
-29.48
-34.77
-42.25
-49.30
-53.01
-51.15
-43.11
-29.97
-14.06
1.96
16.00
26.97
34.74
39.80
42.84
44.53
45.50
46.51
48.32
51.56
56.37
62.27
68.09
72.37
73.91
72.27
67.98
62.34
56.91
52.81
50.31
48.63
46.21
41.20
32.06
18.20
0.29
-19.60
-38.32
-52.27
-58.35
-54.80
-41.80
-21.46
2.72
26.94
48.07
64.37
75.60
82.61
86.67
88.94
90.08
90.40
89.96
88.82
87.06
84.65
81.35
76.64
69.91
60.70
49.05
35.64
21.63
8.33
-3.39
-13.40
-22.47
-31.97
-43.36
-57.78
-75.67
-96.73
-119.82
-143.07
-163.90
-179.38
-186.79
-184.27
-171.46
-149.67
-121.50
-90.04
-58.10
-27.68
-0.02
24.07
43.82
58.40
67.20
70.18
68.13
62.57
55.30
47.82
40.96
34.72
28.59
21.97
14.57
6.66
-0.95
-7.14
-10.87
-11.55
-9.28
-4.94
-0.02
3.87
5.33
3.68
-0.76
-6.54
-11.21
-11.93
-6.17
7.38
28.37
54.77
83.54
111.58
136.68
157.86
175.16
189.06
199.88
207.57
211.91
212.97
211.34
208.08
204.24
200.42
196.41
191.30
183.86
173.13
158.82
141.41
121.90
101.45
81.08
61.52
43.33
26.93
12.63
0.47
-9.85
-18.81
-26.94
-34.41
-41.00
-46.14
-49.34
-50.51
-50.12
-49.10
-48.38
-48.53
-49.54
-51.09
-52.85
-54.84
-57.38
-60.86
-65.39
-70.60
-75.78
-80.28
-83.81
-86.58
-89.22
-92.52
-97.31
-104.46
-114.90
-129.31
-147.73
-169.04
-190.86
-210.08
-223.91
-231.03
-232.06
-229.19
-225.12
-221.90
-219.97
-218.27
-214.86
-207.68
-195.23
-176.94
-153.21
-125.36
-95.36
-65.35
-37.39
-13.11
6.38
20.54
29.21
32.57
31.04
25.45
17.24
8.06
-0.67
-8.12
-14.10
-18.86
-22.86
-26.51
-30.00
-32.71
-33.99
-33.58
-31.79
-29.17
-26.25
-23.56
-21.67
-21.17
-21.33
-21.33
-20.87
-20.05
-18.69
-15.93
-10.59
-1.69
11.17
29.42
53.33
81.09
109.18
134.07
153.48
166.57
173.81
176.47
178.66
183.78
192.80
204.20
216.00
227.33
238.37
249.63
246.24
218.81
169.47
110.66
54.76
8.21
-27.03
-51.36
-66.49
-74.95
-77.07
-73.49
-66.13
-58.33
-53.48
-53.62
-59.82
-71.46
-86.27
-98.45
-101.91
-92.81
-71.25
-41.04
-7.57
23.38
47.42
62.60
70.88
75.91
80.97
87.78
94.56
100.90
106.93
113.10
119.73
127.62
136.86
146.19
152.61
150.79
137.52
112.76
79.58
42.50
6.26
-25.88
-53.12
-77.03
-102.65
-132.97
-168.33
-207.66
-249.77
-292.98
-334.37
-369.51
-393.61
-406.11
-406.44
-394.17
-369.99
-336.35
-296.45
-253.24
-209.23
-147.81
-71.28
4.13
62.14
97.95
116.03
123.38
125.54
125.90
126.06
123.34
116.77
107.53
97.20
86.29
74.48
61.69
49.01
37.96
27.68
18.28
10.70
5.42
2.28
0.34
-1.18
-1.98
-1.04
1.39
5.78
13.11
24.02
39.14
58.22
78.42
96.81
111.21
120.04
123.58
123.60
122.39
122.81
126.02
131.15
136.36
139.90
140.65
138.59
134.37
121.41
97.89
66.67
33.03
1.31
-26.28
-48.83
-65.92
-77.61
-85.24
-88.91
-89.07
-86.96
-84.13
-81.90
-81.10
-82.21
-85.55
-89.88
-92.88
-92.26
-86.28
-73.92
-55.04
-30.54
-2.48
26.12
51.89
72.40
85.95
91.69
89.90
81.90
69.71
55.49
41.11
27.91
16.95
8.53
2.17
-3.27
-8.92
-15.11
-20.75
-23.45
-20.54
-10.80
4.22
20.01
30.70
31.49
20.73
0.43
-25.04
-51.06
-74.60
-94.43
-110.24
-121.31
-125.89
-121.78
-107.76
-84.71
-55.93
-26.32
-0.89
16.75
25.26
25.62
20.39
12.79
5.65
0.78
-1.18
-0.51
2.14
6.20
11.51
18.22
26.51
36.23
46.70
56.81
65.27
70.98
73.17
71.46
65.82
56.49
44.14
29.98
15.75
3.39
-5.42
-9.82
-9.99
-6.88
-1.63
5.00
12.90
22.33
33.38
45.53
57.64
68.27
76.31
81.37
83.72
83.97
82.53
79.29
73.83
65.80
55.36
43.38
31.19
20.09
10.83
3.31
-3.28
-10.02
-17.75
-26.64
-36.12
-45.19
-52.77
-58.22
-61.51
-63.36
-65.09
-68.46
-75.27
-86.84
-103.49
-124.04
-145.71
-164.52
-176.23
-177.55
-167.17
-146.19
-117.66
-85.56
-53.51
-23.91
2.27
25.04
44.64
60.92
73.14
80.31
81.69
77.45
68.82
57.91
47.21
38.81
33.91
32.38
33.01
33.93
33.30
29.78
22.80
12.49
-0.58
-15.70
-32.13
-49.07
-65.69
-81.07
-94.24
-104.23
-109.99
-110.38
-104.34
-91.29
-71.58
-46.86
-19.93
5.88
27.68
43.81
54.38
60.98
65.85
70.96
77.23
84.31
90.88
95.35
96.44
93.89
88.59
82.24
76.73
73.41
72.55
73.28
73.83
71.98
66.04
55.32
40.44
23.13
5.84
-9.07
-19.93
-26.68
-31.09
-35.47
-41.75
-50.55
-60.84
-70.39
-76.77
-78.11
-74.18
-66.73
-57.52
-47.67
-37.57
-27.11
-16.20
-5.22
5.49
15.04
21.69
25.08
26.13
26.18
26.64
28.52
32.28
38.62
47.42
56.76
65.27
71.91
75.36
74.04
66.34
46.38
13.11
-23.92
-59.78
-91.40
-114.03
-123.61
-118.27
-99.05
-69.72
-34.83
0.49
30.67
52.53
65.24
69.26
66.03
57.62
46.53
35.68
26.93
19.71
12.81
4.92
-5.25
-18.09
-32.84
-47.65
-59.70
-66.84
-68.87
-66.73
-62.21
-57.58
-54.66
-54.28
-56.10
-58.36
-59.51
-59.55
-59.74
-62.03
-68.17
-78.79
-92.83
-107.42
-117.62
-118.97
-109.35
-89.45
-62.12
-31.05
0.26
29.10
54.05
76.28
97.00
116.10
132.08
143.29
149.23
150.77
149.64
148.27
151.08
161.19
178.87
201.30
224.16
243.48
256.49
261.66
245.27
201.12
134.73
61.21
-4.81
-55.92
-90.93
-110.93
-120.14
-121.22
-114.24
-99.86
-80.29
-58.70
-38.25
-20.67
-6.11
5.08
12.62
17.47
20.08
20.09
16.51
8.59
-3.47
-18.14
-34.14
-49.80
-62.62
-70.74
-73.60
-72.75
-71.36
-73.33
-78.67
-86.48
-94.17
-98.46
-97.46
-90.97
-80.90
-70.20
-63.69
-61.05
-61.13
-62.61
-64.70
-67.48
-71.03
-76.06
-81.85
-88.66
-94.13
-95.26
-88.97
-73.46
-48.64
-15.13
24.82
67.50
107.55
141.94
168.33
184.89
190.15
177.15
144.93
100.62
61.60
33.32
16.69
9.19
8.10
10.04
11.92
12.83
12.71
11.49
7.90
2.33
-4.45
-11.65
-18.87
-25.93
-32.23
-38.08
-45.16
-56.39
-73.17
-95.23
-120.47
-145.20
-164.74
-174.24
-170.92
-155.13
-129.94
-99.15
-66.43
-34.49
-4.65
22.90
48.73
73.05
95.52
116.00
134.37
149.99
161.51
167.46
167.02
160.62
149.74
136.57
124.28
115.23
110.17
108.24
108.12
108.74
109.27
108.67
99.44
78.06
46.92
13.34
-15.59
-35.88
-46.85
-50.14
-48.65
-45.57
-42.43
-40.08
-39.13
-40.30
-43.51
-47.89
-51.98
-54.90
-56.79
-58.03
-59.78
-63.78
-71.70
-83.61
-97.14
-108.52
-114.22
-112.47
-103.69
-91.28
-78.16
-70.06
-71.78
-83.98
-103.05
-122.47
-135.34
-136.41
-123.80
-99.51
-67.89
-33.93
-0.83
29.65
56.62
79.87
100.16
119.26
139.07
161.27
178.37
181.71
165.24
129.39
80.71
29.37
-11.10
-34.95
-38.19
-20.32
15.91
64.68
116.52
160.07
185.99
189.81
172.44
140.33
102.28
67.71
43.74
33.66
36.75
49.36
66.46
82.84
95.22
102.00
103.61
101.37
96.61
90.11
82.36
73.83
64.53
54.71
44.03
31.11
13.79
-10.09
-41.43
-78.93
-119.26
-158.62
-192.90
-219.06
-236.10
-245.13
-248.33
-247.87
-244.90
-239.31
-231.06
-219.39
-203.47
-183.76
-162.00
-140.15
-119.90
-101.99
-86.32
-73.44
-62.94
-52.83
-41.34
-27.25
-9.68
10.51
31.05
55.54
80.68
99.96
110.77
114.92
116.38
118.68
121.65
123.16
121.37
114.65
103.11
90.65
78.87
67.42
55.54
40.73
20.73
-5.19
-37.57
-76.51
-121.29
-170.02
-224.61
-274.52
-309.82
-323.45
-312.37
-277.27
-233.93
-179.68
-116.10
-49.79
11.88
61.75
91.81
98.86
84.51
53.90
16.01
-22.65
-56.58
-80.25
-90.89
-88.14
-73.45
-50.45
-23.92
3.82
30.55
56.07
81.42
105.66
125.83
139.04
143.80
141.15
135.25
129.39
125.96
125.05
124.49
121.80
116.50
109.92
103.90
99.92
97.69
97.95
101.37
107.74
115.71
123.18
127.47
126.03
117.42
102.12
85.33
72.39
66.24
66.95
73.23
83.65
97.01
112.34
128.85
148.81
172.58
197.76
220.25
236.96
247.18
252.13
253.95
233.77
184.43
114.57
42.98
-16.54
-60.18
-90.13
-110.22
-123.84
-133.57
-138.56
-139.18
-137.09
-135.28
-136.67
-143.69
-158.58
-183.72
-216.78
-252.30
-285.45
-310.91
-324.13
-322.23
-305.05
-275.35
-237.90
-197.81
-149.05
-96.01
-48.06
-12.56
9.15
20.00
24.19
25.71
27.59
32.28
38.36
43.79
46.41
44.43
37.04
24.86
9.83
-5.62
-19.89
-32.41
-42.43
-49.24
-52.45
-52.22
-49.24
-44.53
-39.40
-35.26
-33.75
-35.22
-38.78
-42.99
-46.22
-46.85
-43.29
-34.35
-19.57
0.25
23.86
49.64
76.05
101.77
125.76
147.17
165.00
178.13
185.59
187.11
183.12
174.77
163.63
151.36
139.51
129.03
120.39
113.78
109.15
105.84
102.86
99.23
94.14
87.24
78.07
66.37
52.25
36.33
19.10
1.16
-16.78
-34.05
-50.05
-65.11
-80.02
-96.00
-111.17
-122.41
-127.40
-125.69
-120.11
-111.41
-100.16
-87.13
-73.22
-58.58
-44.62
-32.91
-24.50
-19.51
-16.99
-15.87
-15.18
-14.19
-12.49
-10.37
-8.30
-6.54
-5.06
-3.46
-1.62
0.41
2.63
5.19
8.09
11.40
15.21
19.51
24.15
28.57
32.06
34.17
34.77
33.96
31.92
28.76
24.57
19.67
14.75
11.07
10.24
13.74
22.18
35.08
50.95
67.82
83.76
97.22
107.05
112.42
112.75
107.90
98.48
85.98
72.58
60.42
50.79
43.49
36.97
28.92
17.36
1.40
-18.53
-41.06
-64.61
-87.85
-109.78
-129.53
-146.05
-158.36
-165.92
-169.23
-169.86
-170.02
-171.74
-176.00
-182.45
-189.63
-195.57
-198.33
-196.23
-187.91
-172.47
-149.75
-120.59
-86.81
-50.71
-14.21
21.62
56.52
90.24
121.63
148.33
167.49
177.10
177.10
169.60
157.96
145.32
133.46
122.55
111.75
100.27
87.95
75.36
63.30
52.24
42.03
32.08
21.75
10.80
-0.60
-11.94
-22.77
-33.07
-43.34
-54.48
-67.25
-81.69
-96.72
-110.15
-119.20
-121.43
-115.52
-101.77
-81.98
-58.90
-35.42
-13.86
4.41
18.97
30.02
37.99
43.27
46.11
46.69
45.23
42.10
37.78
32.71
27.17
21.22
14.74
7.64
-0.02
-7.95
-15.70
-22.92
-29.44
-35.41
-41.18
-47.08
-53.25
-59.53
-65.63
-71.28
-76.38
-80.88
-84.50
-86.41
-85.14
-78.97
-66.53
-47.47
-22.81
5.20
33.71
60.01
82.20
99.31
111.17
118.08
120.52
119.06
114.52
107.99
100.78
94.18
89.15
85.98
84.23
82.91
80.80
76.91
70.71
62.28
52.17
41.09
29.62
17.99
6.10
-6.44
-20.09
-35.19
-51.72
-69.11
-86.10
-100.80
-110.92
-114.37
-109.87
-97.49
-78.74
-56.18
-32.73
-10.87
7.79
22.53
33.26
40.13
43.39
43.35
40.55
35.91
30.60
25.79
22.27
20.24
19.24
18.43
16.89
13.96
9.43
3.54
-3.25
-10.38
-17.52
-24.63
-32.01
-40.22
-49.85
-61.30
-74.47
-88.45
-101.45
-110.97
-114.49
-110.15
-97.57
-78.10
-54.52
-30.19
-7.91
10.78
25.77
37.92
48.23
57.11
64.10
68.09
67.99
63.45
55.19
44.98
35.09
27.67
24.01
24.14
26.95
30.65
33.43
34.19
32.64
29.28
25.14
21.18
17.75
14.17
8.73
-1.05
-17.51
-41.86
-73.11
-106.95
-136.47
-154.13
-154.46
-136.08
-102.51
-60.61
-18.36
17.69
44.69
63.12
75.15
82.59
86.16
85.48
80.66
72.55
62.87
54.46
49.86
50.17
54.46
60.82
67.27
73.35
79.49
82.29
78.61
67.61
52.15
36.13
24.12
14.53
5.80
-2.41
-9.21
-12.53
-9.93
0.13
17.08
38.05
58.07
72.35
77.69
73.46
61.69
45.24
28.23
10.75
-7.43
-26.17
-44.27
-60.39
-73.89
-82.84
-86.98
-87.42
-86.52
-86.49
-88.91
-93.79
-99.89
-105.21
-107.69
-106.42
-101.74
-95.45
-89.61
-85.89
-84.78
-85.51
-86.31
-84.79
-78.72
-66.29
-46.92
-21.62
6.65
33.27
53.15
62.47
60.48
50.07
37.39
29.58
32.38
47.93
73.98
104.71
132.79
151.99
158.91
153.75
139.23
119.06
96.47
73.46
50.92
29.32
9.59
-6.83
-18.35
-24.32
-25.64
-24.33
-22.51
-21.33
-20.63
-18.89
-14.63
-6.95
3.35
12.69
16.89
14.05
5.28
-7.61
-23.21
-40.36
-55.94
-65.77
-64.71
-49.06
-18.54
22.94
68.11
109.57
136.42
140.00
118.70
78.70
30.37
-16.24
-54.13
-82.07
-101.10
-112.52
-117.09
-115.63
-109.38
-100.04
-90.01
-79.23
-68.82
-59.25
-50.89
-42.67
-32.71
-19.18
-1.25
20.12
41.99
59.26
67.40
64.35
52.74
37.36
22.22
8.84
-3.26
-14.75
-24.33
-28.59
-24.30
-9.01
17.09
50.89
87.32
120.73
140.78
141.49
127.67
101.52
65.65
23.29
-22.38
-66.13
-103.46
-132.63
-148.92
-149.72
-138.57
-123.14
-110.50
-101.74
-94.95
-82.16
-58.26
-22.18
22.08
67.39
106.77
131.42
136.08
122.97
101.25
80.47
66.17
57.60
49.54
37.84
19.63
-3.60
-27.73
-48.31
-63.12
-72.17
-77.46
-80.18
-81.62
-82.51
-82.07
-79.18
-73.35
-65.61
-57.49
-50.31
-44.73
-41.08
-39.62
-40.23
-42.85
-47.32
-53.15
-58.87
-61.97
-59.51
-49.38
-30.84
-4.57
27.32
61.62
94.58
122.64
143.08
154.31
155.87
148.51
134.26
115.91
96.50
78.68
64.25
53.98
47.70
44.49
43.03
42.02
40.43
37.57
33.09
26.81
18.54
7.93
-5.57
-22.56
-43.22
-66.90
-91.67
-114.19
-130.34
-136.12
-128.92
-108.35
-76.58
-37.81
2.70
39.82
69.45
88.91
96.99
93.78
80.55
59.66
34.36
8.42
-14.59
-32.04
-42.86
-47.70
-48.61
-48.26
-49.00
-52.11
-57.47
-63.86
-69.63
-73.34
-74.28
-72.46
-68.57
-63.63
-58.76
-54.90
-52.66
-52.06
-52.56
-53.19
-52.55
-49.44
-42.96
-32.63
-18.20
0.35
22.75
48.07
74.62
100.53
123.69
142.28
154.95
161.01
160.27
153.20
140.94
125.57
110.81
100.52
97.71
103.43
116.38
133.21
149.48
160.59
162.66
154.23
135.29
107.55
74.40
40.75
12.33
-5.61
-10.22
-6.28
1.05
6.01
4.86
-3.27
-17.50
-36.31
-57.97
-79.87
-101.84
-122.05
-138.52
-149.95
-156.39
-159.12
-160.03
-158.67
-155.17
-149.68
-141.56
-130.90
-118.44
-105.30
-92.47
-80.46
-69.29
-59.26
-51.00
-44.87
-41.61
-41.95
-45.96
-52.75
-60.37
-66.14
-67.47
-62.30
-49.31
-28.81
-2.86
25.51
52.97
76.67
94.86
107.02
114.02
117.71
119.90
121.70
123.86
126.48
129.04
130.41
129.24
124.67
116.53
104.97
90.09
72.74
54.35
36.95
22.84
14.29
13.21
19.95
32.28
41.68
39.69
21.87
-9.14
-45.34
-77.50
-98.08
-103.61
-92.86
-67.36
-30.32
13.72
59.14
98.59
121.23
119.41
93.70
52.97
8.83
-29.17
-56.26
-73.12
-82.52
-86.78
-87.10
-84.25
-79.43
-74.79
-70.34
-66.56
-63.41
-60.55
-57.79
-54.54
-50.43
-45.44
-40.07
-34.55
-28.91
-22.74
-15.52
-7.13
2.57
12.94
22.46
28.89
31.12
29.38
26.60
27.16
33.48
47.23
68.34
95.00
123.53
148.86
165.97
171.30
163.45
143.47
114.86
82.44
51.06
24.27
3.39
-12.67
-26.52
-41.13
-58.59
-79.31
-102.16
-124.88
-144.96
-160.60
-171.60
-179.28
-185.84
-193.21
-202.01
-211.08
-217.45
-217.46
-208.49
-190.29
-164.96
-135.94
-106.43
-78.64
-53.58
-30.89
-9.44
11.73
32.80
53.28
72.31
89.17
102.86
110.36
108.12
95.80
77.96
60.37
45.85
33.38
20.82
6.29
-10.53
-27.97
-42.89
-52.06
-53.31
-45.80
-30.39
-8.86
15.54
39.31
60.62
79.96
99.57
121.63
146.54
167.51
179.49
179.37
167.99
150.71
135.35
128.96
133.98
145.98
154.85
149.81
123.36
75.04
12.14
-52.80
-105.66
-135.32
-137.49
-115.18
-75.31
-26.33
24.54
71.99
106.32
116.68
99.90
62.73
15.69
-31.91
-74.00
-108.18
-133.53
-149.12
-154.07
-148.20
-133.20
-112.87
-88.13
-61.84
-36.55
-13.70
6.29
24.28
41.71
59.01
74.94
87.45
94.28
94.59
89.23
80.25
70.47
62.60
58.01
56.31
56.18
55.92
54.79
53.01
51.31
50.35
50.20
49.91
47.78
42.16
31.96
17.36
-0.29
-19.02
-36.66
-51.07
-60.38
-63.12
-58.45
-46.62
-29.04
-8.27
12.57
30.67
44.37
53.54
59.24
62.92
65.44
66.66
65.53
60.75
51.60
38.48
22.96
7.41
-5.88
-15.31
-20.58
-22.67
-23.52
-25.41
-30.35
-39.52
-52.97
-69.82
-88.49
-107.28
-124.84
-140.52
-154.39
-167.07
-179.01
-190.00
-198.73
-202.98
-200.17
-188.34
-167.01
-137.60
-103.40
-68.51
-36.69
-10.44
9.54
24.17
35.44
45.49
55.82
66.43
76.23
83.46
86.24
83.14
73.79
59.18
41.73
24.79
11.10
2.86
1.08
5.10
12.73
20.72
25.91
26.02
19.86
6.16
-15.27
-43.53
-76.75
-112.21
-146.44
-175.07
-193.60
-198.86
-191.53
-174.31
-150.86
-124.79
-98.95
-75.46
-55.25
-38.49
-18.18
6.77
33.38
56.39
71.49
76.80
72.93
63.64
54.30
52.13
60.90
81.30
110.69
144.28
176.55
198.74
202.64
185.62
150.55
102.78
49.10
-3.74
-49.46
-83.67
-104.63
-115.64
-116.85
-108.66
-92.52
-70.24
-43.92
-15.57
12.07
36.01
54.37
67.60
75.43
78.21
77.29
74.71
73.29
74.97
80.20
87.94
96.64
104.00
107.94
107.26
97.57
78.60
54.33
31.12
13.55
2.85
-2.99
-6.98
-11.77
-18.63
-26.45
-33.06
-35.67
-32.56
-22.94
-7.36
12.49
33.80
53.24
68.56
75.87
75.32
69.58
61.84
53.64
44.24
31.33
12.89
-10.39
-35.33
-57.56
-73.19
-80.33
-79.41
-72.52
-62.26
-50.84
-39.40
-28.65
-19.03
-11.51
-7.24
-7.00
-10.75
-16.78
-23.57
-30.07
-36.30
-43.01
-51.61
-63.51
-79.57
-99.53
-121.91
-144.18
-162.96
-174.80
-176.90
-168.05
-149.09
-122.50
-91.70
-60.07
-30.22
-3.44
19.97
40.24
57.41
71.06
80.66
85.96
87.58
87.08
86.86
89.17
95.05
103.68
112.42
117.76
116.44
106.73
89.06
66.51
43.54
24.44
11.96
6.51
6.92
10.58
14.26
14.94
11.32
3.33
-8.24
-22.08
-36.51
-48.50
-55.21
-55.08
-48.28
-35.38
-17.80
2.10
21.43
37.41
49.64
58.35
63.65
65.63
66.38
68.76
75.07
86.12
101.06
119.75
140.53
159.68
163.36
141.69
94.82
34.04
-20.04
-60.47
-83.81
-89.43
-79.12
-57.01
-28.18
1.34
24.84
32.91
19.41
-11.41
-48.17
-79.32
-98.12
-104.09
-98.95
-85.39
-67.38
-49.26
-33.11
-20.38
-12.68
-10.78
-13.42
-17.82
-21.61
-24.06
-25.88
-27.47
-29.45
-32.43
-36.42
-40.23
-41.49
-38.25
-30.14
-18.28
-4.32
9.46
20.58
26.90
25.60
16.00
0.24
-17.96
-35.54
-50.53
-62.67
-71.08
-73.81
-68.66
-53.83
-29.03
4.70
43.31
81.69
115.06
140.14
155.42
160.98
158.29
149.37
135.98
119.32
100.37
79.99
59.17
38.91
20.34
4.83
-6.40
-12.80
-14.96
-14.17
-12.08
-10.09
-9.10
-9.44
-11.09
-14.12
-19.15
-27.22
-39.29
-55.72
-76.04
-99.14
-123.48
-147.30
-168.67
-185.56
-196.05
-198.62
-192.64
-178.76
-158.78
-135.11
-109.95
-84.77
-60.27
-36.94
-15.65
2.12
14.69
20.93
21.00
16.53
10.15
4.53
1.54
1.87
5.07
10.09
15.83
21.34
26.06
29.59
31.62
31.88
30.04
25.79
18.86
9.15
-3.22
-17.87
-34.26
-51.71
-69.23
-85.40
-98.11
-104.81
-103.05
-91.50
-70.65
-42.95
-12.12
17.94
44.27
65.57
82.16
95.37
106.60
116.59
125.21
131.75
135.18
134.50
129.13
119.09
105.12
88.42
70.42
52.46
35.87
21.45
9.44
-0.36
-8.23
-14.31
-18.66
-21.44
-23.04
-23.39
-22.95
-22.91
-24.71
-29.17
-35.98
-43.71
-50.28
-53.37
-49.40
-36.12
-13.79
15.06
46.98
78.81
108.03
132.81
152.10
167.96
181.81
192.70
197.82
194.74
183.20
165.48
145.61
128.55
122.20
131.45
155.48
188.19
221.50
248.46
264.76
268.56
240.14
173.80
82.27
-10.45
-85.65
-137.46
-168.36
-183.16
-186.97
-184.33
-176.21
-164.56
-153.59
-148.02
-149.78
-156.01
-159.86
-155.18
-138.58
-108.59
-69.04
-28.33
4.41
23.26
25.41
16.24
3.41
-7.33
-12.77
-14.30
-16.82
-25.54
-43.28
-68.60
-96.27
-120.58
-137.22
-143.99
-141.41
-133.64
-122.20
-108.06
-91.31
-71.92
-51.60
-33.65
-21.43
-16.79
-19.17
-25.19
-30.22
-29.55
-20.15
-2.20
21.11
44.77
64.09
76.00
80.29
79.11
76.34
76.16
81.50
93.19
108.14
122.60
132.30
134.02
126.42
110.85
90.86
70.96
55.14
45.67
42.91
45.11
49.36
52.28
51.03
43.63
29.25
8.17
-18.44
-48.49
-79.68
-109.82
-137.21
-160.71
-179.70
-193.79
-202.48
-204.98
-200.33
-188.04
-168.69
-144.12
-116.99
-90.26
-66.37
-46.80
-31.97
-21.41
-14.39
-10.17
-8.08
-6.95
-5.56
-3.07
0.62
4.92
8.77
11.00
10.75
7.75
3.33
-0.78
-3.41
-4.40
-4.42
-4.31
-4.77
-6.11
-8.27
-9.60
-8.73
-5.60
-1.74
1.06
2.07
2.27
4.09
10.39
25.15
50.44
85.09
124.89
164.65
200.41
230.26
254.00
261.48
245.93
208.36
157.99
105.73
58.73
20.15
-9.12
-29.45
-42.14
-47.35
-45.70
-38.88
-29.60
-20.62
-14.03
-10.99
-11.87
-16.44
-22.38
-27.41
-30.53
-32.75
-36.04
-42.18
-51.47
-62.59
-73.04
-78.89
-77.15
-67.19
-51.42
-34.17
-20.43
-13.42
-13.12
-17.94
-23.90
-27.16
-26.15
-22.39
-19.58
-21.08
-28.53
-42.19
-61.28
-84.05
-107.77
-128.48
-141.79
-138.61
-118.21
-85.76
-49.67
-17.50
6.75
23.65
36.49
46.94
54.82
57.86
54.87
46.93
38.29
34.41
37.18
48.25
65.82
86.04
104.49
119.04
129.61
137.75
144.43
149.24
151.04
148.29
140.54
128.39
116.04
104.18
94.46
87.88
84.12
81.90
79.23
74.72
68.10
60.26
52.30
45.62
40.54
36.33
31.97
26.38
18.73
10.60
3.18
-3.09
-8.01
-11.93
-15.32
-18.14
-20.11
-20.85
-20.24
-18.98
-18.32
-19.28
-22.36
-27.42
-33.62
-39.89
-45.29
-49.35
-52.34
-54.93
-57.66
-60.82
-64.41
-68.19
-71.88
-75.25
-78.04
-80.10
-81.20
-80.97
-79.08
-75.67
-71.11
-65.83
-60.28
-54.85
-49.60
-43.97
-36.94
-27.49
-15.57
-2.01
11.71
23.81
32.90
38.59
41.71
43.97
47.02
50.94
54.90
57.70
58.13
55.21
48.77
39.74
29.93
21.29
13.07
4.60
-3.84
-11.43
-18.00
-23.76
-28.64
-31.86
-32.11
-32.06
-32.26
-29.84
-21.10
-5.60
12.91
28.17
34.10
27.36
2.23
-39.54
-88.06
-131.70
-165.13
-190.93
-215.81
-245.60
-281.80
-329.62
-386.89
-443.72
-489.52
-520.61
-540.06
-552.63
-560.56
-508.04
-376.65
-197.76
-23.84
112.64
204.54
257.84
283.07
291.52
292.99
285.69
269.07
248.33
231.43
222.91
222.43
226.63
231.38
232.55
220.75
192.51
153.53
114.88
85.74
70.26
67.75
74.13
83.71
87.10
79.26
61.94
41.05
22.74
10.91
7.03
10.25
17.93
24.82
27.73
27.15
26.18
27.73
32.80
40.27
47.67
52.41
52.21
46.77
37.66
27.27
17.25
7.96
-1.07
-10.53
-20.69
-31.23
-41.38
-50.30
-57.41
-62.37
-65.05
-65.32
-63.09
-58.33
-51.21
-42.11
-31.69
-20.81
-10.44
-1.42
5.80
11.36
15.86
20.10
24.71
29.76
34.76
38.86
41.31
41.88
40.93
39.08
37.03
35.57
35.46
37.39
41.86
49.09
58.75
69.84
80.33
87.76
90.09
85.87
74.18
54.74
28.40
-2.02
-31.40
-53.69
-62.91
-54.61
-27.86
13.66
62.71
110.63
150.28
177.54
190.40
188.53
172.86
145.36
108.95
67.82
26.98
-8.89
-30.85
-33.42
-19.65
1.44
21.24
35.00
42.21
43.98
43.09
41.55
39.27
34.83
26.47
12.92
-7.08
-31.26
-58.72
-88.50
-118.54
-145.48
-164.29
-170.41
-160.18
-132.30
-88.91
-36.00
19.04
69.43
109.74
136.30
144.77
134.08
107.95
73.79
39.07
9.51
-12.12
-26.41
-36.50
-50.59
-74.58
-108.59
-148.04
-187.71
-223.07
-250.56
-268.07
-275.65
-281.07
-291.65
-309.95
-334.15
-361.67
-390.00
-416.20
-436.86
-413.31
-330.76
-209.87
-88.59
7.71
73.17
113.01
135.71
149.00
158.29
161.89
158.65
152.98
152.44
162.32
183.16
211.04
239.47
255.92
250.45
222.17
179.92
136.94
103.17
82.35
72.95
70.85
71.87
71.20
65.78
55.11
40.94
23.43
3.30
-17.31
-34.66
-44.59
-44.80
-35.37
-18.54
2.11
21.67
35.65
41.07
37.19
25.84
10.93
-2.59
-11.15
-10.65
0.30
20.09
44.72
69.91
92.77
112.10
126.50
133.40
129.78
113.62
86.28
52.48
18.67
-9.62
-30.09
-44.41
-56.19
-67.59
-77.85
-81.65
-74.27
-56.92
-37.03
-22.67
-17.84
-21.64
-29.86
-37.94
-43.14
-45.46
-46.58
-48.11
-50.55
-53.48
-56.15
-57.74
-57.89
-56.75
-55.08
-53.75
-53.09
-52.70
-51.94
-49.99
-46.00
-39.41
-30.29
-19.40
-7.72
4.11
15.88
27.49
38.87
49.81
59.42
66.44
69.94
69.93
67.60
64.63
62.26
61.34
62.44
65.37
69.74
75.28
82.20
91.31
104.10
117.78
125.94
125.24
115.38
98.88
79.24
59.36
41.42
27.03
17.00
11.68
10.86
13.13
16.46
19.20
20.15
19.05
16.13
11.66
6.39
1.71
-1.18
-1.58
0.81
5.06
9.72
13.22
14.54
13.95
13.14
14.20
18.68
26.85
36.57
44.68
48.11
44.95
34.97
19.20
-1.38
-26.89
-54.08
-81.37
-107.31
-130.32
-148.69
-161.58
-169.45
-174.02
-177.40
-181.21
-186.94
-195.12
-205.61
-217.43
-229.96
-242.92
-255.80
-266.96
-273.70
-273.38
-263.61
-243.08
-211.00
-169.49
-123.25
-77.67
-36.49
-0.89
29.80
57.82
85.85
117.54
153.28
189.60
221.36
244.64
258.01
262.22
260.57
258.01
261.31
272.68
288.58
302.37
308.42
303.91
288.37
264.42
221.86
163.25
101.97
51.66
16.31
-6.90
-26.20
-48.00
-75.35
-108.84
-143.18
-173.67
-196.85
-209.68
-208.96
-183.32
-134.68
-77.65
-27.87
10.24
39.60
64.37
83.93
95.97
99.04
90.66
73.40
54.05
41.37
39.65
46.88
56.62
62.12
59.10
45.81
24.72
0.86
-20.54
-37.62
-52.03
-67.04
-84.85
-105.49
-127.35
-146.24
-156.75
-154.14
-136.72
-106.44
-68.10
-27.52
9.93
40.00
61.00
73.73
80.68
84.86
88.80
94.09
101.35
110.43
120.64
131.33
141.64
149.79
153.11
148.79
134.68
110.31
77.38
39.55
1.54
-32.21
-58.88
-77.20
-87.27
-90.06
-87.07
-79.74
-68.93
-54.78
-37.07
-16.74
4.66
25.15
42.58
54.91
60.84
60.29
54.42
45.14
32.78
18.68
6.02
-1.34
-1.08
6.65
19.67
34.79
48.99
56.13
53.26
42.61
29.04
15.83
3.30
-9.99
-25.89
-45.70
-76.27
-120.48
-173.72
-227.07
-273.38
-309.47
-335.20
-352.18
-363.41
-380.52
-411.62
-455.69
-505.40
-553.78
-596.69
-631.70
-657.28
-617.36
-491.63
-312.45
-135.56
4.76
103.19
168.26
210.75
239.16
258.51
266.65
261.67
247.92
233.24
223.72
222.14
230.32
250.91
283.29
322.46
362.52
399.49
429.26
447.36
450.63
440.32
422.34
385.71
328.55
260.56
196.09
142.15
98.96
64.29
38.35
21.20
10.22
3.12
-3.21
-11.93
-28.68
-55.97
-93.99
-140.17
-189.89
-242.79
-296.68
-347.92
-373.44
-356.02
-295.81
-211.65
-137.93
-76.14
-23.31
26.66
81.05
142.68
204.30
261.86
308.85
341.18
358.72
360.16
347.88
326.64
301.00
269.17
229.71
183.54
134.70
88.95
47.97
12.36
-18.20
-45.00
-75.19
-111.89
-152.48
-190.69
-220.37
-240.55
-253.54
-263.94
-277.61
-305.67
-351.78
-409.13
-464.22
-502.94
-516.98
-504.90
-471.92
-392.18
-271.77
-143.62
-40.16
28.68
70.99
97.83
116.66
130.82
141.68
144.76
139.30
130.03
122.25
119.74
123.71
134.51
152.02
175.58
199.16
218.83
235.03
240.74
231.11
206.51
174.24
143.86
122.33
109.56
103.76
103.85
108.18
114.87
121.20
124.92
124.81
121.50
115.85
108.15
99.86
92.27
87.24
86.45
91.04
100.44
112.53
123.66
130.58
131.92
128.05
121.09
112.83
106.62
102.81
100.00
96.06
89.01
77.96
63.01
45.51
27.57
11.66
-0.41
-7.61
-10.33
-10.64
-11.79
-17.08
-28.17
-44.22
-62.19
-78.72
-91.48
-100.28
-106.86
-113.58
-122.12
-132.76
-144.64
-156.63
-168.24
-179.67
-191.40
-203.76
-216.87
-231.21
-248.04
-269.26
-296.45
-329.59
-366.01
-400.58
-427.12
-440.48
-438.43
-422.22
-395.99
-364.96
-333.77
-305.21
-280.07
-257.79
-237.29
-217.71
-198.56
-179.58
-160.37
-140.24
-118.12
-92.93
-64.25
-32.54
0.88
33.95
64.41
90.65
112.27
130.36
147.12
165.14
187.51
217.39
257.21
307.44
365.50
425.48
479.28
519.02
539.32
539.95
525.71
503.62
479.66
456.64
434.16
410.33
383.93
354.28
323.45
295.05
271.13
250.25
228.26
200.22
163.13
117.28
63.20
5.00
-51.13
-101.06
-145.33
-187.23
-230.74
-277.33
-325.68
-377.34
-429.77
-475.87
-507.95
-521.35
-514.53
-490.42
-455.33
-418.56
-395.91
-395.17
-411.50
-432.68
-446.74
-445.65
-428.78
-400.55
-329.87
-219.84
-103.25
-9.70
55.30
96.00
125.12
146.25
160.66
171.41
177.55
183.34
198.10
229.51
278.98
343.09
414.10
483.39
542.31
579.09
588.75
575.30
546.03
507.87
466.61
425.22
384.99
346.08
305.75
264.16
224.51
186.84
148.73
107.88
62.76
13.57
-37.71
-88.65
-134.44
-169.31
-193.93
-211.75
-225.99
-238.96
-252.42
-266.89
-281.14
-291.77
-295.01
-294.76
-296.32
-302.40
-313.04
-328.35
-349.22
-376.36
-409.34
-411.04
-361.70
-272.09
-171.12
-80.00
-6.65
48.23
86.95
113.40
132.19
141.83
141.30
132.72
120.37
107.46
95.60
86.22
81.08
81.82
84.49
85.03
82.07
76.72
70.49
64.77
61.10
60.84
64.21
66.98
64.71
55.47
40.67
23.42
7.35
-4.38
-9.80
-8.81
-4.32
0.36
3.29
4.19
3.54
1.99
0.02
-2.02
-3.89
-5.87
-8.06
-10.30
-12.33
-14.18
-16.18
-18.60
-21.33
-23.75
-24.91
-23.81
-19.93
-13.43
-5.24
3.85
13.02
21.96
30.90
40.43
51.37
64.50
80.29
98.09
115.41
127.54
128.89
115.06
85.36
44.10
-0.40
-38.86
-64.46
-74.99
-72.72
-62.28
-48.33
-34.00
-20.84
-9.76
-1.87
1.36
-1.27
-9.98
-23.68
-40.50
-58.45
-75.59
-90.52
-101.97
-108.73
-109.93
-105.64
-97.44
-88.39
-82.14
-81.23
-86.08
-94.29
-101.59
-103.80
-98.85
-87.75
-73.93
-61.46
-52.82
-48.25
-46.10
-44.21
-41.24
-37.30
-33.34
-29.92
-28.12
-26.50
-22.44
-13.07
3.78
29.39
64.33
108.41
160.05
215.43
268.42
311.31
337.21
342.58
328.81
301.62
268.81
237.21
210.74
190.17
174.23
161.08
149.11
136.94
123.14
106.33
85.80
62.29
38.03
16.26
-0.27
-10.33
-14.64
-15.30
-14.88
-15.91
-20.44
-30.14
-45.45
-65.64
-89.13
-114.21
-139.88
-166.31
-194.24
-223.44
-251.61
-273.34
-282.09
-273.48
-247.63
-209.56
-167.26
-128.63
-96.62
-74.39
-62.37
-57.98
-57.49
-58.14
-58.80
-59.31
-59.09
-56.54
-49.76
-36.13
-13.44
19.12
61.49
113.09
172.63
237.19
301.36
357.21
396.82
414.53
408.84
383.00
343.55
297.70
250.79
205.16
160.64
116.84
74.27
34.46
-0.99
-31.58
-58.52
-84.04
-109.95
-136.16
-159.84
-176.27
-181.18
-172.97
-153.86
-129.23
-105.43
-87.29
-76.50
-71.48
-68.88
-65.61
-60.15
-52.60
-43.88
-34.69
-25.24
-15.61
-6.48
0.50
3.06
-0.85
-12.04
-29.58
-50.88
-72.31
-90.26
-102.08
-106.72
-105.03
-99.40
-92.71
-87.19
-83.39
-79.93
-74.50
-65.51
-53.46
-41.27
-33.35
-33.86
-45.16
-67.16
-97.67
-133.20
-169.75
-203.23
-229.66
-245.65
-249.10
-239.67
-218.90
-189.70
-155.04
-116.80
-75.34
-30.14
18.82
69.79
118.98
161.47
192.91
211.07
216.48
211.83
200.59
185.56
168.16
148.83
128.05
107.28
89.01
75.76
68.67
66.37
64.80
58.41
42.16
13.46
-26.42
-72.47
-117.50
-154.36
-177.85
-185.80
-178.82
-158.93
-128.08
-87.12
-36.19
23.57
87.97
148.90
195.73
218.81
213.68
183.71
139.75
96.41
66.58
56.97
66.46
87.79
111.44
129.54
137.97
136.54
127.67
114.87
101.53
90.17
81.82
75.67
69.28
59.29
42.73
18.42
-12.42
-46.49
-79.67
-108.36
-130.15
-143.80
-148.77
-145.03
-133.32
-115.59
-94.89
-74.32
-55.66
-38.43
-20.25
1.54
27.86
56.76
83.77
103.75
113.08
110.91
99.15
81.22
60.74
40.83
23.84
11.44
4.29
1.63
1.03
-1.07
-8.00
-21.59
-41.42
-65.43
-91.00
-116.24
-140.15
-162.07
-180.83
-194.41
-200.58
-198.05
-187.45
-171.24
-152.68
-134.42
-117.51
-101.53
-85.54
-69.42
-54.46
-42.95
-37.02
-37.41
-42.95
-51.17
-59.69
-67.59
-76.12
-87.93
-105.33
-128.40
-154.05
-176.65
-190.05
-190.06
-176.10
-151.29
-121.05
-90.87
-64.55
-43.42
-26.73
-12.70
0.56
14.59
30.37
48.41
68.54
89.66
109.80
126.44
137.40
141.64
139.74
133.61
125.80
118.58
113.29
110.19
108.64
107.56
105.68
101.74
94.71
83.94
69.28
50.91
29.11
4.06
-24.24
-55.73
-89.80
-124.82
-157.95
-185.46
-203.36
-208.75
-200.73
-180.84
-152.57
-120.56
-89.32
-62.17
-40.64
-23.95
-9.43
6.65
28.16
57.83
96.23
141.42
189.35
234.89
273.52
301.57
316.71
318.58
309.38
293.88
277.94
266.45
260.57
258.03
252.56
236.93
206.62
162.39
110.08
57.38
11.79
-22.22
-40.20
-40.37
-23.35
8.06
49.24
94.60
137.38
173.05
198.80
218.73
237.61
259.05
284.63
314.39
348.16
384.05
422.13
461.21
504.60
552.26
599.81
639.65
664.29
670.79
660.05
641.34
586.22
483.07
338.24
175.04
19.96
-110.95
-198.96
-256.49
-294.81
-322.16
-338.36
-343.37
-341.94
-337.90
-334.63
-333.60
-337.13
-344.01
-353.94
-363.11
-369.62
-373.35
-375.10
-375.69
-375.12
-374.74
-373.54
-371.12
-364.57
-351.75
-331.94
-305.83
-275.86
-245.37
-218.98
-198.98
-186.31
-178.93
-174.19
-169.47
-162.72
-152.73
-139.57
-124.67
-109.04
-93.51
-77.99
-63.03
-48.91
-35.32
-20.66
-4.11
14.82
36.81
62.44
91.50
120.91
147.31
168.38
184.70
195.03
197.24
188.94
168.83
137.20
93.33
39.27
-19.64
-73.46
-116.98
-148.96
-171.39
-187.22
-200.19
-218.40
-248.72
-293.71
-346.85
-401.95
-451.67
-488.98
-508.11
-484.60
-411.13
-301.91
-206.78
-138.20
-93.19
-58.27
-26.11
7.85
45.88
85.31
124.30
163.70
209.26
260.70
313.89
363.04
404.36
436.55
457.28
465.74
463.24
455.34
444.40
431.68
417.70
403.64
389.90
373.48
350.39
317.84
277.12
229.75
178.42
125.77
75.01
28.83
-11.98
-47.48
-77.28
-99.96
-114.91
-122.22
-124.47
-124.56
-124.69
-126.19
-129.37
-133.04
-136.31
-138.76
-140.50
-144.83
-154.92
-172.32
-196.60
-226.26
-258.15
-289.97
-318.46
-339.71
-353.45
-360.52
-361.74
-357.83
-350.01
-338.52
-325.38
-312.22
-280.49
-223.92
-150.87
-78.94
-22.74
3.93
9.72
3.69
-8.42
-24.36
-41.67
-59.52
-74.89
-83.14
-80.69
-65.74
-41.52
-12.85
15.92
39.41
53.86
58.63
55.60
47.83
39.98
35.49
37.83
49.65
69.95
94.85
119.55
139.64
152.05
156.36
153.40
145.66
136.32
127.16
118.42
109.74
101.07
93.30
89.10
91.79
104.82
130.17
166.75
210.00
252.98
288.10
309.06
312.50
298.29
269.35
230.51
186.98
142.97
100.81
60.89
22.29
-16.12
-54.61
-92.10
-126.46
-155.36
-177.11
-191.09
-197.56
-197.23
-190.87
-179.31
-163.52
-144.71
-124.01
-102.15
-79.18
-54.51
-27.46
2.19
33.80
65.83
96.18
122.65
143.58
158.12
166.42
169.41
168.45
164.79
159.48
153.32
146.92
140.65
134.39
127.32
118.05
105.25
88.50
69.37
51.55
40.02
39.52
53.07
81.09
121.33
169.48
219.59
265.23
300.49
320.72
323.29
308.24
278.63
239.82
198.16
158.22
122.68
92.12
65.55
41.12
17.16
-6.89
-31.02
-54.75
-79.98
-108.25
-139.71
-172.68
-204.33
-231.91
-253.20
-268.47
-279.65
-293.31
-314.98
-347.29
-389.72
-439.76
-493.85
-546.47
-591.84
-623.27
-639.62
-641.22
-629.63
-607.31
-577.59
-544.14
-508.75
-473.57
-412.07
-314.86
-192.01
-67.75
36.29
111.97
157.08
185.95
208.90
231.61
251.50
265.32
272.20
272.55
267.56
258.80
249.85
244.17
245.75
253.67
265.14
276.39
283.77
284.41
276.44
260.11
235.95
205.86
170.50
131.84
93.47
59.65
33.57
15.94
5.55
-0.84
-6.14
-13.36
-23.98
-37.91
-54.12
-71.42
-89.36
-108.42
-130.30
-156.68
-188.74
-226.04
-266.14
-305.13
-338.75
-363.44
-377.15
-379.88
-373.22
-359.75
-342.36
-323.86
-306.83
-293.33
-284.45
-279.63
-276.42
-270.86
-258.75
-237.15
-205.45
-165.62
-121.32
-76.33
-33.48
5.62
40.23
69.83
93.89
112.05
124.58
132.79
138.93
145.23
153.08
162.61
173.14
184.40
197.58
215.41
241.38
278.23
325.62
379.37
432.11
475.42
502.15
508.01
492.00
456.43
407.39
352.23
297.78
248.75
207.09
172.59
144.13
120.78
103.28
95.96
102.27
122.44
152.67
186.72
218.71
245.06
264.27
277.53
290.73
308.16
330.61
354.94
376.27
390.90
397.62
396.51
390.18
386.37
390.53
403.82
422.96
443.08
460.98
476.08
488.13
463.68
382.84
246.65
79.98
-83.72
-220.56
-322.12
-384.60
-422.64
-447.32
-460.84
-463.42
-456.60
-445.44
-436.94
-436.01
-444.23
-461.09
-482.23
-499.78
-507.37
-502.03
-484.67
-458.39
-426.00
-389.38
-351.19
-307.99
-260.15
-212.51
-171.09
-139.47
-117.83
-104.33
-97.14
-96.45
-101.98
-112.67
-126.08
-138.67
-146.86
-148.00
-140.51
-122.33
-93.75
-56.11
-12.29
34.34
80.26
122.08
156.89
183.11
201.01
212.41
220.40
227.24
233.49
237.10
233.71
218.15
187.07
141.28
86.21
30.84
-15.56
-46.27
-59.08
-56.41
-43.81
-27.82
-14.07
-6.42
-6.71
-14.73
-28.09
-42.20
-51.00
-48.54
-30.93
1.89
45.45
91.64
130.76
154.02
155.59
133.79
91.11
33.57
-30.56
-92.09
-142.40
-174.78
-185.64
-175.37
-148.22
-111.53
-74.28
-45.29
-31.65
-37.37
-62.42
-102.66
-150.57
-196.90
-233.20
-254.20
-259.06
-251.15
-235.97
-218.51
-201.25
-183.73
-163.80
-139.61
-111.15
-80.49
-50.67
-24.06
-1.01
19.94
41.02
63.79
88.12
112.10
132.75
146.92
152.29
148.50
136.64
119.06
98.98
80.19
66.54
60.90
63.96
73.49
85.76
95.58
98.17
90.95
75.04
54.98
37.00
26.56
26.79
40.09
66.79
105.29
152.08
202.10
249.35
287.88
313.19
323.64
323.41
318.90
315.93
317.18
321.78
326.67
328.30
324.28
298.78
244.39
164.64
73.73
-11.44
-79.81
-128.40
-159.50
-176.89
-184.02
-181.86
-171.90
-157.25
-142.52
-132.26
-128.30
-130.53
-136.91
-144.84
-151.54
-156.28
-160.69
-167.97
-181.83
-204.89
-237.96
-279.60
-320.69
-350.86
-361.27
-347.58
-312.07
-263.39
-213.11
-171.39
-143.18
-128.19
-120.44
-114.45
-107.17
-98.10
-88.42
-79.25
-70.71
-61.85
-51.52
-39.18
-24.79
-10.24
3.71
17.06
30.04
42.67
54.71
65.76
75.35
83.14
89.04
93.25
95.84
97.00
97.56
99.07
103.44
111.88
124.20
138.71
152.92
164.11
170.27
170.50
164.86
153.99
138.51
118.86
95.45
69.13
41.28
13.86
-10.88
-30.74
-44.07
-50.20
-49.65
-44.12
-36.03
-28.06
-22.38
-20.20
-21.53
-25.44
-30.56
-35.65
-39.88
-42.83
-44.27
-43.94
-41.53
-36.83
-30.05
-21.96
-13.82
-7.19
-3.65
-4.52
-10.41
-20.95
-34.43
-47.95
-57.96
-61.23
-55.91
-42.15
-22.06
1.08
23.87
43.71
59.25
70.32
77.50
81.73
83.97
85.13
85.95
86.92
88.24
89.69
90.79
90.85
89.21
85.34
78.97
70.10
59.00
46.10
31.80
16.41
0.26
-16.10
-31.51
-44.04
-51.37
-51.34
-42.87
-26.52
-4.53
19.74
42.85
62.15
76.33
85.34
89.92
91.10
89.81
86.81
82.65
77.82
72.74
67.71
62.95
58.65
55.05
52.45
51.09
50.98
51.80
52.92
53.53
52.88
50.50
46.44
41.37
36.62
33.98
35.23
41.60
53.25
69.11
87.16
105.07
120.80
133.13
141.47
145.63
145.30
139.99
129.19
112.74
91.13
65.63
38.01
10.20
-16.09
-39.64
-59.76
-76.30
-89.56
-100.13
-108.85
-116.56
-123.99
-131.56
-139.13
-145.70
-149.38
-147.64
-137.95
-118.83
-90.61
-55.91
-19.04
15.01
41.97
59.32
66.52
64.73
55.93
42.32
25.84
8.22
-9.09
-24.81
-37.95
-48.04
-55.10
-59.66
-62.44
-64.04
-64.69
-64.24
-62.41
-59.18
-55.11
-51.46
-49.76
-51.13
-55.53
-61.42
-66.02
-66.32
-60.17
-47.19
-28.85
-7.87
12.84
31.07
45.67
56.39
63.36
66.76
66.65
63.13
56.58
47.62
37.06
25.66
14.07
2.73
-8.01
-17.96
-27.07
-35.54
-43.75
-52.28
-61.69
-72.48
-84.89
-98.67
-112.91
-125.84
-135.00
-137.80
-132.28
-117.89
-95.82
-68.78
-40.19
-13.26
9.71
27.59
40.09
47.49
50.31
49.22
45.09
39.07
32.60
27.14
23.86
23.22
24.95
28.17
31.73
34.49
35.57
34.24
29.87
21.75
8.80
-9.82
-34.29
-63.47
-94.63
-123.64
-145.67
-156.51
-153.83
-138.51
-113.97
-85.09
-56.72
-32.60
-14.82
-4.02
0.10
-1.65
-9.21
-21.93
-38.31
-56.12
-73.07
-87.66
-99.46
-108.94
-116.95
-125.74
-136.64
-149.60
-163.29
-176.04
-186.74
-195.43
-203.07
-210.93
-221.84
-236.70
-253.62
-268.19
-275.25
-271.05
-254.51
-227.14
-179.62
-109.91
-23.17
69.03
153.86
222.51
271.85
302.86
318.79
323.69
319.62
308.63
292.88
274.65
255.82
237.51
220.19
204.31
190.62
178.42
167.31
157.21
148.42
141.36
136.18
132.57
130.07
128.14
125.23
120.10
112.41
102.28
90.50
78.00
65.20
52.29
39.39
26.12
12.43
-1.25
-14.03
-24.74
-32.32
-36.58
-37.69
-36.11
-32.65
-28.10
-23.10
-18.08
-13.20
-8.47
-4.50
-1.72
-0.71
-2.21
-7.08
-16.19
-30.12
-49.11
-68.95
-86.42
-98.59
-103.52
-100.65
-90.89
-76.14
-58.75
-40.91
-24.37
-11.07
-2.34
1.16
-0.36
-5.54
-12.16
-17.74
-20.30
-19.03
-14.85
-9.34
-3.93
0.86
5.54
11.15
18.55
28.00
39.16
51.21
63.58
76.00
88.17
99.49
108.91
115.19
117.43
115.38
109.56
101.15
91.69
82.73
75.53
70.85
68.80
68.79
69.76
70.42
69.67
66.77
61.50
54.10
45.11
35.30
25.46
16.23
8.02
0.88
-5.38
-11.03
-16.25
-21.02
-25.12
-28.25
-30.14
-30.65
-29.84
-27.96
-25.26
-21.85
-17.61
-12.37
-5.89
1.90
10.66
19.45
27.04
32.41
35.19
35.83
35.18
34.22
33.70
33.96
34.96
36.51
38.50
40.97
44.01
47.27
50.38
53.07
54.93
55.11
52.29
45.03
32.41
14.60
-8.36
-35.11
-63.42
-90.96
-116.31
-139.10
-159.36
-176.80
-190.62
-202.40
-212.99
-222.20
-229.17
-233.68
-236.56
-239.22
-242.77
-247.43
-256.45
-270.70
-288.00
-304.56
-317.89
-328.44
-338.78
-351.76
-368.60
-393.35
-425.50
-459.45
-486.76
-500.61
-498.59
-482.39
-456.42
-392.67
-283.81
-144.59
-4.26
112.42
195.37
246.61
273.62
284.37
285.63
276.98
258.59
233.23
206.27
182.53
163.45
150.36
143.52
142.90
144.13
144.37
143.40
143.73
147.66
156.00
168.40
183.69
200.71
216.02
227.85
232.25
228.91
218.68
203.00
183.46
161.50
138.59
114.89
91.07
68.48
49.39
35.26
26.95
24.24
26.03
31.03
37.70
45.04
52.66
60.80
69.39
79.15
90.32
102.49
114.54
125.08
133.00
138.16
141.47
143.97
147.90
154.20
162.14
169.62
174.56
176.14
176.05
177.81
175.39
166.14
150.75
133.78
120.55
113.12
108.48
100.67
83.63
54.08
15.02
-26.88
-63.80
-90.39
-104.49
-111.12
-116.40
-125.77
-142.21
-164.05
-186.65
-203.88
-210.73
-205.23
-189.29
-167.52
-146.21
-131.51
-126.63
-133.59
-152.07
-179.68
-212.24
-244.37
-269.65
-282.23
-278.30
-256.81
-220.00
-172.43
-119.55
-66.27
-15.96
30.03
71.67
109.47
143.89
175.03
202.78
226.95
247.45
264.41
278.33
289.66
298.08
301.96
298.53
284.79
258.46
218.88
167.68
109.04
48.98
-6.07
-50.90
-82.37
-99.53
-103.47
-96.74
-83.45
-69.18
-59.43
-56.88
-62.32
-74.97
-92.45
-111.07
-126.13
-133.29
-129.70
-114.62
-89.65
-58.17
-23.99
9.76
41.30
68.36
88.66
100.86
105.23
102.99
95.83
85.53
73.89
62.91
54.23
49.01
47.71
50.03
54.38
58.66
61.54
61.12
56.18
46.17
31.34
12.59
-8.69
-31.89
-56.39
-81.70
-107.80
-135.11
-164.82
-198.32
-236.73
-274.05
-304.09
-319.84
-315.36
-287.97
-239.18
-174.36
-100.76
-25.43
46.29
109.97
162.50
201.43
225.15
233.85
230.10
218.75
205.62
195.82
191.46
192.04
194.98
197.04
195.82
190.63
182.52
173.48
165.43
159.03
154.02
149.73
145.83
142.66
140.86
140.58
140.93
140.34
137.24
131.52
125.03
120.87
121.83
128.63
139.21
149.35
154.44
151.36
139.63
121.31
99.74
78.10
58.39
41.20
26.20
12.79
0.67
-10.09
-19.26
-26.74
-32.75
-37.72
-42.00
-45.64
-48.29
-49.29
-47.91
-43.57
-36.05
-25.56
-12.71
1.47
15.70
28.52
38.53
44.66
46.30
43.38
36.16
25.02
10.16
-8.45
-30.99
-57.53
-87.91
-121.73
-158.35
-196.83
-235.61
-272.44
-304.45
-328.85
-343.91
-349.72
-348.26
-342.52
-335.19
-327.52
-319.09
-308.50
-294.55
-277.15
-257.53
-237.64
-219.18
-203.05
-189.08
-176.43
-164.16
-151.78
-139.69
-129.01
-121.01
-116.40
-114.62
-113.69
-110.87
-103.92
-92.24
-77.31
-61.98
-49.04
-39.92
-34.12
-29.75
-24.89
-18.63
-11.54
-5.07
-0.41
2.33
4.41
7.79
14.00
23.13
33.49
42.24
46.56
45.04
38.30
28.78
19.53
12.84
9.24
7.68
6.33
3.82
-0.10
-4.70
-9.07
-12.79
-16.11
-19.49
-22.70
-24.44
-22.65
-15.48
-2.42
15.04
33.87
50.59
62.70
69.50
72.09
72.43
72.25
72.18
71.66
69.52
64.78
57.13
47.06
35.45
23.10
10.49
-1.98
-13.73
-23.79
-30.99
-34.38
-33.80
-30.04
-24.71
-19.62
-16.19
-15.25
-17.22
-22.53
-31.98
-46.42
-66.05
-89.57
-113.86
-134.53
-147.36
-149.89
-142.29
-127.22
-108.46
-89.23
-70.91
-52.71
-32.22
-6.36
27.44
70.21
120.37
173.29
221.82
257.93
275.29
271.69
250.04
217.31
181.89
150.53
126.54
109.97
99.18
92.53
89.25
89.13
91.82
96.61
102.78
110.21
119.32
130.29
142.34
153.44
160.99
163.03
159.08
149.96
136.86
120.39
100.33
76.31
48.83
19.75
-8.18
-32.48
-52.14
-68.15
-83.04
-99.84
-120.73
-145.95
-173.47
-199.18
-217.84
-224.32
-214.85
-187.75
-144.10
-87.45
-23.39
41.33
99.74
145.82
175.59
188.04
185.51
173.11
157.33
144.07
136.92
136.17
139.22
141.85
140.13
131.80
116.78
96.42
72.37
45.63
16.32
-15.76
-50.40
-86.25
-120.63
-150.05
-171.30
-182.95
-186.63
-186.91
-190.10
-201.85
-224.58
-256.18
-290.56
-319.96
-337.79
-340.60
-328.15
-302.08
-264.28
-215.97
-158.39
-94.00
-27.31
35.53
88.35
126.95
150.51
161.73
165.61
167.57
171.65
179.43
190.03
201.13
210.26
215.83
217.40
215.15
209.07
198.63
183.17
162.92
139.77
117.22
99.14
88.35
85.36
88.21
93.42
97.57
98.52
96.02
91.16
85.23
78.84
71.57
62.24
49.72
33.90
16.04
-1.37
-15.61
-25.26
-30.69
-33.86
-37.54
-44.02
-53.95
-66.06
-77.36
-84.43
-85.87
-82.29
-76.17
-70.96
-69.87
-74.40
-84.55
-98.67
-114.49
-132.01
-151.44
-171.95
-191.09
-205.46
-211.26
-207.20
-194.30
-175.67
-158.60
-149.02
-148.72
-155.23
-164.16
-171.00
-175.43
-179.54
-186.26
-201.46
-227.47
-261.01
-294.86
-321.97
-337.53
-343.30
-343.72
-319.53
-263.51
-183.02
-95.55
-16.55
38.04
74.21
95.95
103.87
97.10
73.53
33.49
-16.76
-66.06
-102.41
-115.45
-102.36
-65.67
-11.84
47.73
102.86
148.01
182.41
207.87
227.43
241.59
250.51
255.37
257.18
258.89
265.26
280.77
307.52
345.30
391.03
441.39
493.49
543.10
584.73
611.99
618.83
601.75
561.69
503.66
435.57
365.35
297.48
232.15
166.74
98.68
28.25
-40.39
-100.87
-147.67
-179.05
-198.07
-211.07
-224.62
-242.67
-265.51
-291.14
-317.58
-344.53
-373.14
-403.98
-435.06
-461.32
-476.26
-474.81
-455.61
-421.38
-377.57
-330.10
-283.28
-239.16
-198.03
-159.64
-124.05
-91.96
-64.22
-41.07
-21.84
-5.19
10.13
24.63
37.87
48.74
56.18
59.81
59.96
57.39
52.65
45.64
35.59
21.50
2.69
-20.55
-46.51
-71.87
-92.13
-102.64
-100.16
-84.35
-58.44
-28.47
-1.31
17.80
26.97
27.83
24.31
20.58
19.45
21.81
27.06
34.17
42.48
51.97
62.84
74.89
87.12
97.87
105.50
109.23
109.68
108.83
109.25
113.00
120.69
131.20
141.98
149.92
152.32
147.61
135.78
118.46
98.50
79.45
64.57
56.02
54.39
58.68
66.99
77.25
87.81
97.54
105.66
111.43
114.24
113.80
110.43
105.04
98.73
92.27
85.73
78.78
70.69
60.74
48.44
33.63
16.62
-1.96
-21.15
-39.73
-56.05
-68.87
-77.87
-84.17
-89.97
-97.52
-107.97
-120.55
-132.81
-141.05
-142.64
-137.32
-127.31
-115.89
-105.39
-96.03
-86.18
-73.74
-56.11
-33.07
-7.07
17.93
38.80
55.01
68.29
80.86
93.62
108.97
127.20
146.29
162.49
172.52
175.80
174.62
172.90
174.55
187.80
217.67
263.22
316.96
368.65
410.38
439.20
456.87
467.90
484.98
518.78
573.89
646.79
729.00
811.41
886.47
948.53
946.51
848.39
654.38
402.92
148.23
-68.36
-230.16
-339.87
-409.16
-451.05
-468.71
-463.24
-436.73
-397.97
-357.46
-323.24
-299.11
-285.02
-278.86
-272.27
-258.53
-235.61
-207.63
-181.97
-163.13
-153.31
-152.11
-157.72
-164.39
-167.37
-164.81
-158.70
-152.93
-150.85
-154.32
-163.38
-176.97
-191.99
-206.06
-218.61
-231.17
-245.84
-263.51
-283.10
-301.55
-314.98
-319.51
-313.09
-296.15
-271.24
-241.73
-210.70
-180.61
-153.34
-130.58
-113.86
-104.06
-100.80
-102.27
-105.61
-108.01
-107.89
-105.34
-101.88
-99.55
-99.74
-102.51
-106.65
-110.42
-112.30
-111.76
-109.18
-105.37
-100.91
-95.55
-88.17
-77.34
-61.98
-42.00
-18.44
6.90
32.11
55.75
76.99
95.34
110.30
121.16
127.37
129.04
127.49
125.14
124.76
128.25
135.53
144.18
150.16
149.55
140.46
124.28
105.62
90.51
83.90
87.31
98.01
110.18
117.68
116.92
108.41
96.41
86.64
83.65
88.88
100.40
113.97
124.78
128.80
123.44
107.96
83.48
53.15
22.07
-3.48
-17.61
-16.89
-1.92
22.31
47.79
65.99
70.47
58.60
31.59
-6.93
-52.83
-102.92
-154.92
-206.56
-254.48
-294.08
-320.66
-331.24
-326.05
-308.68
-284.73
-259.56
-236.33
-215.25
-194.14
-170.14
-141.72
-109.86
-78.09
-51.14
-32.90
-24.50
-23.74
-25.96
-26.17
-21.35
-11.60
0.44
11.46
19.67
25.93
33.48
46.38
68.03
100.29
143.48
196.54
257.01
320.52
380.64
429.74
460.82
469.83
457.00
426.75
385.82
340.87
296.56
255.09
216.91
181.70
149.19
118.98
90.24
61.47
30.78
-3.59
-42.80
-87.27
-136.48
-188.49
-239.59
-284.34
-316.42
-330.37
-323.34
-296.22
-253.49
-201.86
-148.47
-99.19
-57.93
-26.66
-5.91
4.90
7.28
3.67
-2.94
-9.75
-15.14
-19.39
-24.48
-33.44
-48.81
-71.32
-99.16
-128.49
-154.93
-175.28
-188.72
-196.62
-201.36
-204.71
-206.86
-206.56
-202.20
-193.17
-180.71
-167.67
-157.16
-151.02
-148.85
-147.98
-144.62
-135.21
-117.72
-92.07
-59.99
-24.48
10.75
41.82
65.22
78.49
80.77
73.05
57.90
38.63
18.34
-0.62
-16.82
-29.35
-37.52
-40.96
-40.07
-36.35
-32.42
-31.35
-35.74
-46.93
-64.68
-87.57
-113.73
-141.41
-169.31
-196.49
-222.02
-244.86
-263.98
-278.60
-288.36
-293.14
-292.51
-285.20
-268.84
-240.47
-197.53
-138.97
-65.85
18.51
109.32
201.33
289.77
370.98
442.46
502.70
550.53
584.93
604.93
610.07
601.07
580.28
551.53
519.31
487.51
458.28
431.67
406.03
379.08
348.91
314.42
275.28
231.62
183.79
132.38
78.37
23.08
-31.92
-85.32
-136.25
-184.25
-228.90
-269.28
-303.61
-329.40
-344.13
-346.21
-335.80
-315.12
-287.97
-258.60
-230.38
-204.90
-181.92
-160.05
-137.84
-114.61
-90.56
-66.13
-41.12
-14.37
15.80
50.27
87.92
125.28
157.62
180.91
193.62
197.37
195.81
192.51
189.21
185.38
179.31
169.73
156.93
142.65
128.86
116.45
104.73
92.24
78.02
62.76
48.74
38.82
34.95
37.21
43.87
52.37
60.60
67.62
73.76
79.94
86.75
93.98
100.58
105.16
106.59
104.43
98.88
90.50
79.87
67.14
51.85
33.12
10.19
-16.91
-46.97
-77.71
-106.57
-131.87
-153.56
-173.22
-193.19
-215.42
-240.58
-267.91
-295.79
-322.52
-346.78
-367.52
-383.57
-393.36
-395.04
-387.03
-368.76
-341.00
-305.89
-266.38
-225.51
-185.70
-148.38
-114.03
-82.43
-53.00
-25.03
2.31
30.12
59.78
92.54
128.96
168.17
207.66
243.79
272.82
292.30
301.83
303.21
299.59
294.21
289.08
284.28
278.08
267.77
250.98
226.84
196.46
162.68
129.13
99.03
74.16
54.51
38.41
23.10
5.41
-17.43
-46.92
-82.48
-121.17
-158.01
-187.19
-203.79
-205.29
-192.34
-168.48
-138.98
-109.30
-83.75
-64.72
-52.59
-46.21
-43.75
-43.42
-44.16
-45.69
-48.22
-51.92
-56.50
-61.28
-65.67
-69.79
-74.63
-81.82
-92.76
-107.77
-125.47
-142.83
-155.82
-160.44
-153.89
-135.35
-106.27
-69.89
-30.22
9.04
45.31
77.13
103.69
124.23
137.77
143.55
141.66
133.71
122.60
111.59
103.05
97.56
94.04
90.55
85.60
78.83
71.02
63.30
56.27
49.55
42.00
32.47
20.61
7.10
-6.72
-19.81
-32.14
-44.90
-59.67
-77.12
-95.76
-111.75
-119.96
-115.96
-98.09
-68.43
-32.12
4.56
36.56
61.51
79.65
92.51
101.28
105.88
105.33
98.95
87.55
73.63
60.58
51.15
46.23
44.55
43.48
40.45
34.19
25.10
14.73
4.77
-3.97
-11.82
-19.92
-29.36
-40.40
-52.32
-63.91
-74.49
-84.62
-95.98
-110.31
-127.78
-145.87
-159.44
-162.48
-150.65
-123.48
-85.00
-42.23
-2.51
29.17
51.46
65.93
75.16
80.71
82.41
79.04
69.87
56.02
40.50
27.07
18.51
15.34
15.75
16.65
15.38
10.89
3.97
-3.55
-10.10
-15.37
-20.51
-27.34
-37.19
-50.06
-64.47
-78.42
-90.53
-100.93
-111.08
-122.48
-135.18
-146.82
-153.08
-149.25
-132.31
-102.43
-63.08
-19.80
21.75
57.49
85.68
106.52
121.10
130.26
134.20
132.78
126.21
115.70
103.53
92.35
84.24
79.87
78.27
77.42
75.33
70.91
64.26
56.34
48.23
40.39
32.49
23.65
13.13
0.84
-12.61
-26.34
-39.96
-53.95
-69.45
-87.25
-106.61
-124.61
-136.55
-137.52
-124.46
-97.67
-60.96
-20.36
18.20
50.85
76.53
96.48
112.55
125.79
135.86
141.57
142.05
137.78
130.68
123.39
117.97
115.00
113.42
111.33
107.15
100.39
91.80
82.74
74.19
66.18
57.75
47.65
35.26
21.11
6.70
-6.26
-16.95
-26.09
-35.60
-47.49
-62.31
-78.13
-90.77
-95.25
-87.91
-68.16
-38.82
-5.06
27.69
55.66
77.57
94.17
106.85
116.41
122.59
124.61
122.14
116.14
108.72
102.37
98.77
97.99
98.60
98.46
95.93
90.63
83.58
76.44
70.51
65.98
61.89
56.84
49.89
41.26
32.22
24.32
18.26
13.13
6.64
-3.85
-19.65
-39.52
-59.53
-74.30
-78.96
-71.18
-52.04
-25.44
3.62
30.92
54.28
73.47
89.23
102.04
111.51
116.72
117.14
113.46
107.75
102.61
99.99
100.23
101.92
102.64
100.28
93.99
84.45
73.25
61.87
50.89
39.80
27.56
13.52
-1.89
-17.22
-30.65
-41.05
-48.70
-55.23
-62.76
-72.54
-84.05
-94.96
-102.13
-103.16
-97.53
-86.88
-74.03
-61.60
-50.69
-40.78
-30.46
-18.82
-6.29
5.29
13.71
17.62
17.43
15.18
13.53
14.35
17.83
22.49
26.04
26.73
24.22
19.68
14.91
11.21
8.46
5.22
-0.36
-9.32
-21.02
-33.27
-43.42
-49.84
-52.76
-54.18
-56.55
-61.26
-67.52
-72.66
-73.43
-67.85
-56.45
-42.22
-29.17
-20.50
-17.18
-17.87
-19.98
-21.32
-21.28
-20.89
-21.87
-25.25
-30.57
-36.00
-39.45
-39.82
-37.69
-35.01
-33.97
-35.69
-39.67
-44.07
-46.75
-46.61
-44.11
-41.05
-39.54
-40.85
-44.68
-49.44
-53.17
-54.85
-54.88
-54.81
-56.36
-60.34
-65.90
-70.70
-71.86
-67.34
-57.25
-43.67
-29.71
-18.04
-9.87
-4.77
-1.33
1.62
4.17
4.80
1.79
-5.42
-15.57
-26.09
-34.32
-38.83
-40.00
-39.72
-41.58
-47.82
-58.08
-69.66
-79.37
-85.48
-88.56
-90.85
-94.93
-105.12
-122.80
-145.73
-169.10
-188.41
-201.83
-210.28
-215.94
-220.60
-229.17
-243.63
-262.46
-281.52
-297.02
-307.78
-314.77
-319.44
-322.66
-330.51
-346.92
-372.39
-403.51
-435.30
-463.53
-484.98
-497.14
-461.60
-360.93
-205.51
-30.98
125.10
241.94
317.19
359.69
382.06
396.07
401.88
400.38
391.74
377.04
357.00
331.27
300.02
266.77
238.14
217.34
206.47
204.61
209.04
215.99
221.45
222.41
218.12
208.48
190.66
164.14
132.02
101.19
79.10
69.77
72.36
80.16
84.41
77.30
56.70
25.77
-9.15
-41.78
-68.13
-86.70
-98.26
-102.96
-101.54
-95.55
-87.69
-81.17
-78.71
-81.88
-90.26
-101.73
-112.98
-120.95
-123.84
-121.54
-115.76
-108.67
-102.17
-97.23
-93.81
-90.96
-87.53
-82.62
-75.87
-67.36
-57.17
-45.13
-30.63
-12.98
7.98
31.17
54.20
73.89
87.38
93.17
91.42
83.69
72.07
58.40
43.79
28.73
13.47
-1.69
-16.47
-30.93
-45.62
-61.32
-78.23
-95.25
-109.75
-118.08
-116.77
-103.82
-79.56
-46.59
-9.03
28.65
62.63
90.23
109.97
121.37
124.71
121.10
112.34
100.74
88.62
77.60
68.20
59.74
50.87
40.39
28.01
14.72
2.52
-6.24
-9.99
-8.56
-3.45
2.62
6.53
5.65
-1.36
-14.12
-30.46
-46.70
-58.35
-61.07
-51.75
-29.35
4.70
46.90
92.64
137.45
177.90
212.08
239.37
259.88
274.01
282.22
285.01
283.12
277.51
269.27
259.34
248.35
236.50
223.71
209.70
194.27
177.33
158.97
139.31
118.42
96.23
72.44
46.73
18.83
-11.07
-42.08
-72.36
-99.24
-119.66
-130.89
-131.49
-121.82
-104.18
-82.19
-59.78
-40.23
-25.45
-15.95
-11.20
-10.22
-11.88
-15.00
-18.30
-20.42
-20.23
-17.15
-11.60
-4.88
1.16
4.90
5.43
2.84
-1.98
-8.01
-14.49
-21.31
-28.84
-37.60
-48.02
-60.08
-73.36
-86.81
-98.79
-107.03
-109.01
-102.60
-86.82
-62.46
-31.97
1.15
33.34
61.87
85.09
102.18
112.69
116.19
112.53
102.21
86.86
69.09
51.94
37.92
28.37
23.17
21.11
20.57
20.10
18.71
15.83
11.04
3.89
-6.13
-19.46
-36.21
-56.03
-77.96
-100.48
-121.59
-139.08
-150.88
-155.49
-152.30
-141.65
-124.55
-102.30
-76.11
-47.05
-16.24
14.93
44.72
71.16
92.49
107.48
115.70
117.39
113.32
104.64
92.79
79.46
66.52
55.79
48.73
46.07
47.51
51.69
56.32
58.61
55.83
45.98
28.23
3.18
-27.22
-59.88
-90.92
-116.25
-132.16
-136.13
-127.44
-107.51
-79.57
-47.90
-16.80
10.26
31.04
44.43
50.13
48.46
40.33
27.39
11.92
-3.56
-16.92
-27.12
-34.48
-40.43
-46.86
-55.28
-66.15
-78.64
-90.92
-100.69
-106.02
-106.03
-101.30
-93.89
-86.80
-83.09
-84.64
-91.29
-100.50
-108.06
-109.46
-101.65
-84.19
-59.39
-31.38
-4.53
18.01
35.01
46.96
55.14
60.79
64.57
66.73
67.55
67.77
68.61
71.36
76.80
84.73
93.99
102.80
109.46
112.87
112.82
109.93
105.26
99.99
95.14
91.50
89.53
89.15
89.45
88.64
84.36
74.47
57.97
35.70
10.26
-14.66
-35.47
-49.59
-55.77
-53.93
-44.50
-28.20
-6.00
20.44
48.62
75.41
97.67
113.05
120.51
120.30
113.57
101.83
86.40
68.29
48.21
27.01
5.73
-14.47
-32.56
-47.88
-60.16
-69.67
-77.09
-83.59
-90.43
-98.81
-109.51
-122.55
-136.98
-150.73
-161.08
-165.22
-160.93
-146.67
-122.03
-88.06
-47.58
-4.94
35.14
68.08
90.48
100.46
98.80
88.30
72.60
54.96
37.63
22.80
11.71
4.85
1.13
0.20
2.08
6.83
13.75
21.49
29.77
38.03
45.52
49.98
51.67
52.71
56.57
66.17
83.27
109.89
145.65
187.33
227.16
258.72
277.65
282.96
276.05
248.78
199.74
133.57
72.94
25.53
-7.00
-28.90
-40.68
-42.44
-35.70
-22.65
-8.18
1.50
-0.97
-17.74
-46.50
-82.08
-120.06
-157.94
-193.48
-225.52
-253.15
-276.89
-295.28
-306.01
-306.82
-297.14
-278.16
-251.58
-219.98
-186.24
-153.96
-124.78
-98.80
-75.27
-53.98
-35.67
-21.26
-11.67
-7.06
-6.97
-9.47
-12.14
-12.99
-11.38
-8.02
-4.25
-1.48
-0.77
-2.78
-7.49
-14.44
-22.98
-32.61
-42.95
-53.73
-64.81
-75.95
-86.72
-96.25
-103.10
-105.51
-101.80
-91.05
-73.53
-50.78
-25.16
0.84
25.35
47.38
66.69
83.27
96.88
106.94
112.84
114.40
112.18
107.50
101.93
96.72
92.36
88.42
83.94
77.89
69.74
59.66
48.34
36.65
25.18
14.06
2.91
-8.87
-21.83
-36.19
-51.68
-67.32
-81.49
-92.06
-96.79
-93.99
-83.12
-65.19
-42.52
-18.15
5.11
25.38
41.94
54.98
64.97
72.21
76.67
78.23
77.04
73.81
69.60
65.52
62.24
59.71
57.27
54.03
49.38
43.35
36.71
30.59
26.02
23.44
22.33
21.30
18.34
11.45
-0.79
-18.58
-40.57
-63.76
-83.93
-96.50
-97.70
-85.69
-61.24
-27.59
10.41
47.61
79.86
104.81
121.96
132.32
137.61
139.57
139.50
138.02
135.13
130.42
123.37
113.58
100.91
85.52
67.77
48.27
28.00
8.42
-8.65
-21.44
-29.01
-31.70
-31.17
-29.89
-30.20
-33.49
-40.03
-49.23
-60.22
-72.19
-84.30
-95.23
-102.83
-104.36
-97.35
-80.68
-55.38
-24.52
7.65
37.03
60.81
77.99
89.02
95.05
97.06
95.45
90.15
81.09
68.61
53.74
37.93
22.64
8.88
-3.04
-13.50
-23.22
-32.97
-43.27
-54.24
-65.78
-77.63
-89.48
-101.01
-111.85
-121.53
-129.62
-135.82
-140.14
-142.95
-144.57
-145.01
-143.48
-138.48
-128.23
-111.46
-88.21
-60.08
-29.85
-0.63
25.05
45.88
61.80
73.54
82.01
87.91
91.56
93.08
92.65
90.60
87.39
83.51
79.28
74.93
70.57
66.32
62.33
58.70
55.37
52.05
48.15
42.93
35.56
25.38
11.94
-4.82
-24.56
-46.53
-69.62
-92.34
-112.85
-129.06
-138.92
-140.85
-134.24
-119.84
-99.67
-76.54
-53.31
-32.13
-14.03
0.86
12.91
22.48
29.64
34.30
36.44
36.33
34.92
33.90
35.56
42.22
55.34
74.60
97.47
119.66
136.12
143.02
139.09
126.00
107.48
87.83
70.26
56.02
44.36
32.76
18.55
0.03
-23.01
-49.31
-76.40
-101.00
-119.52
-128.87
-128.54
-119.84
-105.66
-89.78
-76.10
-67.85
-66.88
-73.23
-85.41
-102.88
-124.48
-148.28
-171.63
-191.84
-207.08
-216.70
-221.14
-221.67
-222.27
-226.06
-233.94
-244.08
-252.98
-257.23
-255.09
-247.13
-221.78
-174.89
-110.07
-37.70
31.45
91.69
142.73
186.31
223.46
253.49
273.12
280.48
276.46
264.79
249.55
233.33
217.03
200.48
182.91
162.16
137.17
108.39
77.87
48.28
21.96
0.17
-14.00
-19.51
-18.04
-12.21
-4.56
3.52
11.96
21.41
32.49
45.13
58.04
69.20
77.18
81.80
84.01
85.04
85.72
86.31
86.90
87.47
88.23
89.53
91.46
93.76
96.02
98.17
100.76
104.73
110.54
117.84
125.25
130.87
132.96
130.65
124.19
114.73
103.94
93.32
84.03
76.64
71.05
66.52
62.00
56.46
49.42
41.12
32.46
24.73
19.07
16.11
15.81
17.47
20.00
22.13
22.64
20.56
15.39
7.44
-2.14
-11.46
-18.35
-20.97
-18.49
-11.54
-2.07
7.17
13.49
15.04
11.24
2.75
-8.93
-22.02
-34.82
-46.13
-55.21
-61.87
-66.34
-69.21
-71.18
-72.98
-75.18
-78.18
-82.16
-87.07
-92.46
-97.52
-101.18
-102.56
-101.50
-98.90
-96.66
-97.04
-101.94
-112.08
-126.88
-144.63
-163.04
-179.91
-193.40
-202.30
-206.12
-205.06
-200.04
-192.52
-184.12
-176.21
-169.43
-163.55
-157.59
-150.20
-140.19
-126.92
-110.48
-91.66
-71.68
-51.90
-33.36
-16.51
-1.11
13.51
28.02
42.51
56.32
68.20
76.79
81.22
81.27
77.22
69.39
58.04
43.58
27.21
11.28
-0.88
-6.03
-2.30
9.91
28.09
48.74
68.62
85.58
98.30
105.69
106.39
99.02
83.09
59.76
31.94
3.34
-22.80
-44.93
-63.59
-80.88
-99.48
-121.60
-148.19
-178.58
-210.44
-239.94
-262.54
-274.06
-271.94
-256.17
-229.58
-197.03
-164.13
-135.43
-113.39
-98.05
-87.59
-79.38
-70.99
-61.08
-49.59
-37.74
-27.31
-19.84
-15.81
-14.21
-12.94
-9.81
-3.61
5.47
16.14
27.15
38.17
50.04
64.01
80.60
98.95
117.09
133.08
146.05
156.54
165.83
174.80
183.23
189.74
192.57
190.42
182.98
170.91
155.21
136.72
115.65
91.70
64.33
33.37
-0.31
-34.21
-64.11
-84.57
-90.29
-77.82
-47.20
-2.52
48.72
97.47
135.70
158.56
165.43
159.54
146.44
131.95
120.62
114.95
115.56
121.79
132.39
145.79
160.30
174.05
185.06
191.52
192.00
185.56
171.78
150.71
122.87
89.38
51.95
12.73
-25.95
-62.00
-93.73
-120.03
-140.33
-154.50
-162.79
-165.60
-163.38
-156.36
-144.63
-128.33
-108.14
-85.62
-63.14
-43.30
-28.06
-17.89
-11.66
-7.23
-2.48
3.69
11.04
18.30
23.89
26.46
25.14
19.33
8.52
-7.73
-29.56
-56.61
-88.04
-122.66
-159.06
-195.55
-230.04
-259.91
-282.20
-294.17
-294.12
-281.92
-259.06
-228.05
-191.53
-151.54
-109.29
-65.49
-20.91
23.05
64.38
100.92
131.03
154.25
171.32
183.81
193.36
201.09
207.28
211.61
213.58
213.07
210.64
207.44
204.73
203.21
202.56
201.54
198.58
192.70
184.15
174.24
164.57
156.01
148.23
140.05
130.34
118.93
106.60
94.30
81.99
67.91
49.03
22.37
-13.65
-58.52
-110.15
-165.86
-223.29
-280.51
-335.26
-384.14
-422.49
-445.35
-449.14
-433.16
-400.02
-354.84
-303.74
-252.45
-205.82
-167.86
-141.78
-129.46
-130.55
-141.76
-157.32
-170.73
-177.24
-175.90
-169.93
-165.30
-168.09
-181.92
-206.55
-237.98
-269.80
-295.11
-308.27
-306.03
-287.85
-255.65
-212.96
-164.05
-113.13
-63.91
-19.25
18.99
50.11
74.64
94.13
110.55
125.51
139.43
151.39
159.51
161.95
157.85
147.97
134.72
121.66
112.72
111.25
118.88
134.67
154.69
172.66
181.81
177.56
159.14
129.99
96.38
65.02
40.75
25.45
18.56
18.54
24.81
37.60
57.08
82.12
109.89
136.64
159.07
175.63
186.88
195.95
206.18
219.74
236.99
256.98
278.24
299.31
318.77
334.97
348.68
360.45
369.95
375.92
377.05
372.94
364.25
352.40
338.83
329.97
330.56
341.07
356.99
371.38
378.53
376.05
364.94
347.90
336.67
340.26
360.49
391.02
421.41
442.70
450.28
443.98
426.23
413.06
419.19
452.46
511.39
588.24
673.94
760.49
840.90
848.52
745.32
534.01
260.48
-16.11
-255.35
-443.92
-586.28
-685.55
-759.07
-806.24
-823.29
-811.25
-779.62
-742.59
-712.48
-694.14
-687.05
-688.23
-683.94
-663.61
-624.17
-570.70
-512.28
-456.73
-408.12
-368.00
-337.16
-309.61
-280.86
-249.32
-216.51
-185.23
-157.31
-132.67
-111.12
-93.26
-77.20
-62.72
-50.72
-42.83
-40.01
-41.12
-42.03
-38.55
-27.57
-6.98
22.06
56.50
92.09
124.52
150.46
169.37
177.54
171.50
154.99
130.17
96.51
54.74
6.76
-44.56
-93.82
-137.06
-171.92
-198.26
-217.65
-225.32
-217.13
-193.02
-167.33
-145.14
-126.25
-103.52
-71.45
-26.86
30.00
94.96
160.54
214.51
247.71
256.38
243.62
215.90
182.71
146.58
108.22
68.90
31.08
-0.80
-22.63
-33.37
-35.58
-33.43
-31.28
-31.63
-35.17
-41.07
-46.58
-49.44
-48.86
-45.74
-41.76
-39.01
-39.02
-42.57
-49.70
-59.10
-69.03
-77.95
-84.60
-87.48
-85.05
-75.91
-59.17
-34.84
-3.90
31.48
68.00
102.04
130.63
151.83
164.05
166.74
160.56
147.44
129.95
110.40
90.29
70.21
50.21
28.63
4.12
-23.20
-51.52
-78.08
-100.58
-117.96
-130.49
-139.37
-148.32
-160.69
-177.77
-198.35
-219.84
-240.06
-258.09
-273.95
-274.07
-248.79
-195.60
-121.16
-37.41
44.47
117.05
176.55
221.94
253.35
272.37
280.23
278.69
270.43
258.03
242.92
224.99
203.12
177.44
146.67
110.47
70.54
30.45
-6.08
-36.86
-61.90
-82.99
-102.57
-124.94
-152.57
-183.64
-211.90
-229.06
-228.27
-206.83
-167.41
-117.57
-70.28
-37.69
-26.08
-34.09
-54.55
-78.32
-97.73
-108.42
-110.04
-108.61
-111.84
-125.48
-151.52
-188.30
-231.24
-273.37
-306.48
-306.65
-261.51
-178.48
-82.43
0.35
55.47
82.88
91.17
91.04
90.76
91.94
92.21
90.83
89.02
87.44
84.48
77.61
66.71
56.43
52.98
62.56
87.75
126.69
170.68
206.63
222.88
215.01
187.68
150.54
114.45
87.29
73.65
74.22
86.43
103.53
116.68
119.04
108.85
94.51
79.84
66.22
53.92
41.83
29.95
19.22
11.62
8.98
12.07
19.55
29.73
41.27
52.56
61.99
68.19
71.19
72.25
72.56
73.16
72.37
68.84
62.27
53.46
43.65
33.95
24.64
14.83
2.77
-12.35
-29.29
-45.36
-57.17
-61.80
-57.47
-44.14
-23.49
1.62
28.27
54.57
79.52
102.79
124.26
143.63
160.02
171.88
177.29
174.67
163.77
145.77
123.03
98.44
74.51
52.63
32.74
13.65
-6.29
-28.07
-51.45
-74.97
-96.30
-113.08
-123.74
-127.93
-126.60
-121.67
-115.47
-110.25
-107.74
-108.88
-113.63
-120.96
-129.23
-136.66
-141.93
-144.55
-144.73
-142.90
-139.04
-132.43
-121.86
-106.26
-85.57
-61.05
-35.07
-10.39
10.72
27.02
38.21
44.58
46.39
43.73
36.68
25.85
12.79
-0.14
-10.34
-16.01
-16.97
-14.80
-12.18
-11.66
-14.55
-20.39
-27.40
-33.58
-37.78
-40.19
-42.02
-44.51
-48.17
-52.43
-56.07
-57.93
-57.59
-55.43
-52.22
-48.41
-43.77
-37.49
-28.82
-17.74
-5.40
6.16
14.76
19.03
19.06
16.31
12.91
10.73
10.56
12.03
14.02
15.45
15.85
15.55
15.20
15.25
15.41
14.71
12.00
6.66
-0.93
-9.43
-17.18
-23.01
-26.79
-29.48
-32.50
-36.93
-42.84
-49.33
-54.98
-58.65
-60.02
-59.61
-58.23
-56.37
-53.74
-49.33
-42.03
-31.30
-17.69
-2.81
11.21
22.50
30.11
34.18
35.61
35.36
33.91
31.09
26.45
19.93
12.32
5.15
0.08
-2.00
-1.63
-0.65
-1.39
-5.49
-13.13
-22.99
-33.10
-41.88
-48.94
-55.27
-62.51
-71.87
-83.31
-95.33
-105.49
-111.57
-112.19
-107.18
-97.27
-83.45
-66.43
-46.60
-24.51
-1.38
20.33
37.62
47.93
50.23
45.59
36.79
27.25
19.67
14.99
11.93
8.51
3.38
-3.34
-10.22
-15.18
-16.49
-13.41
-6.33
2.76
12.21
21.17
29.19
35.30
37.82
35.03
26.39
13.49
-1.17
-13.02
-16.84
-9.37
8.54
31.56
51.78
61.42
55.43
31.27
-8.16
-55.10
-99.50
-132.37
-148.13
-145.34
-126.38
-86.27
-30.21
28.31
74.56
100.86
108.31
102.53
89.68
74.41
59.70
45.47
31.83
19.70
10.10
3.06
-2.80
-9.15
-17.02
-26.03
-36.15
-46.15
-54.12
-59.28
-61.08
-60.36
-58.25
-55.12
-49.90
-41.87
-30.22
-14.58
4.31
24.49
43.04
57.27
65.50
67.74
64.42
56.73
46.44
35.50
25.64
18.13
13.99
11.19
9.12
7.14
4.83
1.97
-1.41
-5.18
-9.34
-13.95
-19.21
-24.93
-31.09
-37.66
-44.60
-51.91
-59.70
-68.39
-78.52
-90.48
-103.48
-115.63
-123.78
-124.22
-113.87
-91.56
-58.76
-19.33
21.63
59.58
91.49
116.36
134.74
147.78
156.32
160.47
159.87
154.31
144.39
131.50
117.55
104.28
92.72
82.90
74.14
65.55
56.49
46.92
37.12
27.42
17.87
8.37
-1.30
-11.04
-20.45
-28.99
-36.33
-42.65
-48.70
-55.39
-63.04
-70.73
-76.16
-76.14
-67.82
-49.92
-23.45
8.44
41.60
72.36
98.68
120.30
138.22
153.45
166.29
176.21
182.36
184.32
182.57
178.27
172.70
166.62
159.97
152.03
141.86
128.75
112.31
92.39
68.76
40.99
8.61
-28.48
-69.46
-112.25
-153.65
-190.11
-218.73
-238.24
-249.26
-253.76
-253.80
-250.30
-242.34
-227.41
-202.56
-165.71
-116.67
-57.32
8.80
77.29
143.53
203.27
252.96
289.94
312.72
321.06
316.05
299.91
275.53
245.84
213.18
178.96
143.59
106.93
68.89
29.85
-9.18
-46.77
-81.65
-113.03
-140.63
-164.55
-184.84
-201.41
-214.10
-222.91
-228.12
-230.17
-229.29
-225.05
-216.18
-200.85
-177.31
-144.81
-104.22
-58.12
-10.24
35.48
75.95
109.40
135.44
154.48
167.18
174.02
175.30
171.48
163.41
152.52
140.49
128.85
118.54
109.72
101.94
94.48
86.73
78.55
70.13
61.88
54.05
46.51
38.65
29.66
18.82
5.74
-9.58
-26.86
-45.61
-64.99
-83.52
-98.96
-108.47
-109.47
-100.70
-83.10
-59.85
-35.53
-14.45
0.70
9.45
13.10
13.53
12.14
9.36
4.98
-1.13
-8.49
-16.04
-22.74
-28.13
-32.68
-37.43
-43.19
-50.00
-56.93
-62.62
-65.97
-66.81
-65.83
-64.25
-63.17
-63.21
-64.50
-66.95
-70.40
-74.49
-78.31
-80.08
-77.42
-67.97
-50.45
-25.33
5.06
37.19
67.30
92.45
111.04
122.69
127.80
127.10
121.29
111.30
98.37
84.21
70.71
59.49
51.31
45.99
42.66
40.44
39.24
39.93
43.55
50.37
59.01
66.57
69.64
65.60
53.37
33.41
6.93
-24.71
-59.99
-96.63
-131.17
-159.23
-177.02
-182.89
-178.27
-167.14
-154.31
-143.30
-135.40
-129.99
-125.74
-121.89
-118.67
-116.83
-116.68
-117.32
-116.55
-111.64
-100.46
-82.26
-58.00
-29.73
0.12
29.71
57.98
84.47
108.75
129.95
146.76
157.74
161.95
159.56
152.12
142.28
133.16
127.40
126.41
129.92
136.05
142.04
145.24
144.04
138.25
128.76
116.76
103.15
88.28
72.32
55.73
39.60
25.34
14.14
6.45
1.72
-1.29
-3.97
-7.38
-12.02
-17.86
-24.49
-31.35
-37.92
-43.99
-49.82
-56.12
-63.72
-73.07
-83.74
-94.49
-103.55
-109.30
-110.71
-107.44
-99.66
-87.81
-72.51
-54.76
-35.95
-17.84
-2.06
10.32
19.08
24.78
28.28
30.41
31.67
32.31
32.44
32.26
31.97
31.67
31.27
30.47
28.84
26.00
21.82
16.42
10.10
3.13
-4.49
-13.09
-23.04
-34.34
-46.11
-56.40
-62.70
-62.70
-55.30
-41.10
-22.23
-1.54
18.40
36.01
50.79
62.87
72.43
79.33
83.16
83.64
81.03
76.33
70.91
66.04
62.33
59.59
56.95
53.46
48.57
42.38
35.45
28.42
21.59
14.79
7.64
-0.14
-8.36
-16.48
-23.94
-30.59
-36.95
-43.87
-51.89
-60.49
-67.86
-71.28
-68.11
-56.95
-38.37
-14.77
10.47
34.16
54.28
70.23
82.41
91.55
98.06
101.97
103.22
102.09
99.38
96.23
93.75
92.61
92.85
94.04
95.57
96.92
97.86
98.40
98.61
98.56
98.16
97.23
95.51
92.87
89.33
84.97
79.76
73.16
63.94
50.29
30.50
3.90
-28.25
-62.59
-94.39
-118.93
-133.14
-136.50
-130.91
-119.66
-105.99
-92.11
-79.01
-67.04
-56.62
-48.62
-44.07
-43.43
-46.05
-50.10
-53.30
-53.91
-51.47
-46.96
-42.23
-38.96
-37.87
-38.50
-39.71
-40.48
-40.57
-40.69
-41.93
-44.96
-49.51
-54.36
-58.04
-59.74
-59.99
-60.66
-64.27
-73.00
-87.71
-107.57
-130.15
-152.16
-170.33
-182.23
-186.64
-183.57
-173.93
-159.17
-141.16
-122.04
-104.35
-90.71
-82.91
-80.98
-82.57
-83.32
-78.44
-64.85
-42.73
-15.90
9.50
27.25
33.23
26.57
9.42
-14.39
-40.85
-66.71
-89.78
-108.59
-121.90
-128.80
-128.77
-121.97
-109.25
-91.99
-71.73
-50.11
-29.01
-10.69
2.09
6.82
2.27
-10.41
-27.31
-42.43
-49.66
-44.72
-26.52
2.55
37.76
73.82
106.42
133.29
154.17
169.99
182.06
191.49
199.07
205.35
210.79
215.52
219.26
221.28
220.47
215.71
206.24
191.84
172.87
150.24
124.93
97.79
69.27
39.38
7.95
-25.17
-59.85
-95.50
-130.85
-163.92
-192.29
-213.80
-227.48
-234.09
-236.22
-237.01
-238.34
-239.31
-236.20
-224.20
-200.27
-165.30
-124.21
-83.63
-48.67
-20.63
2.73
24.73
46.89
67.65
83.38
91.13
90.99
86.64
83.59
86.15
95.13
107.59
118.62
124.12
122.80
116.48
108.65
102.32
98.42
95.74
92.11
85.98
77.48
68.19
59.97
53.53
47.96
41.12
31.06
17.28
1.27
-13.98
-25.44
-31.41
-32.45
-30.94
-29.76
-30.49
-32.30
-32.09
-25.70
-9.92
16.02
49.85
86.98
122.02
150.42
169.63
179.24
180.37
174.74
163.95
149.30
132.16
114.29
97.92
85.15
77.00
72.76
70.08
66.18
59.37
50.10
40.72
34.16
32.19
34.38
38.39
41.27
40.90
36.81
29.91
21.78
13.78
6.81
1.37
-2.00
-2.74
-0.46
4.68
11.79
19.26
25.26
28.24
27.41
23.03
16.26
8.86
2.47
-1.87
-4.08
-4.84
-5.08
-5.29
-5.01
-2.99
2.30
11.68
24.52
38.53
50.38
56.93
56.34
48.72
35.79
19.84
2.46
-15.94
-35.85
-57.44
-79.62
-99.73
-114.56
-121.80
-121.40
-115.76
-108.56
-103.05
-100.53
-100.05
-99.37
-96.41
-90.65
-83.25
-76.29
-71.45
-69.06
-68.14
-67.27
-65.68
-63.88
-63.38
-65.79
-71.78
-80.56
-90.23
-98.70
-104.71
-108.24
-110.29
-111.99
-113.68
-114.63
-113.24
-108.03
-98.51
-85.74
-72.06
-60.27
-52.61
-49.94
-51.60
-55.83
-60.59
-64.35
-66.57
-67.72
-68.86
-71.03
-74.59
-78.76
-81.59
-80.43
-72.72
-56.93
-33.21
-3.65
27.96
56.79
77.95
87.65
84.18
68.54
44.51
17.91
-4.77
-18.17
-19.77
-10.62
5.00
21.18
32.44
35.59
30.59
20.41
9.96
4.60
8.79
24.97
52.99
89.97
130.77
169.07
198.81
215.90
219.23
210.99
195.67
178.44
163.32
151.95
143.37
134.94
123.57
107.03
84.58
56.98
26.13
-5.48
-35.08
-60.17
-78.85
-90.40
-95.42
-95.62
-93.03
-89.06
-84.01
-77.19
-67.69
-55.27
-40.88
-26.21
-13.03
-2.49
5.14
9.97
11.99
10.76
5.78
-2.77
-13.43
-23.66
-30.84
-33.51
-32.18
-29.02
-26.69
-26.89
-29.54
-33.06
-35.63
-36.54
-36.88
-39.09
-45.58
-57.20
-72.52
-88.29
-100.94
-108.36
-110.96
-111.47
-113.66
-120.54
-133.09
-150.01
-168.73
-186.72
-202.35
-214.89
-223.69
-227.59
-224.92
-214.32
-195.93
-171.87
-145.62
-120.53
-98.06
-77.01
-54.23
-26.57
7.13
44.96
82.59
115.12
139.32
154.88
163.90
169.05
171.39
169.47
160.46
142.70
118.07
92.76
75.64
75.09
95.35
134.54
184.87
235.02
273.61
292.36
287.94
262.06
220.18
169.46
116.99
68.70
29.14
1.80
-10.89
-8.21
7.79
31.65
55.43
71.02
73.19
61.68
41.29
19.85
4.93
1.17
9.04
25.39
45.06
62.46
72.73
72.21
58.56
30.90
-9.95
-61.02
-116.90
-169.95
-211.45
-233.59
-231.84
-206.94
-165.58
-118.93
-79.36
-56.40
-53.61
-67.80
-90.55
-111.32
-120.63
-112.44
-85.37
-42.81
7.67
55.83
90.94
104.32
91.31
52.52
-6.28
-75.18
-142.03
-194.64
-223.24
-222.47
-192.58
-139.41
-72.58
-2.80
60.94
113.36
153.34
182.86
205.16
222.81
236.43
244.54
244.37
233.44
211.12
179.33
142.00
103.25
65.80
30.53
-2.50
-32.35
-56.34
-70.73
-72.80
-62.73
-44.10
-22.61
-3.86
8.44
12.93
9.94
0.48
-14.33
-33.11
-53.74
-73.34
-88.97
-98.64
-102.15
-101.11
-98.13
-95.91
-96.38
-100.44
-108.44
-120.74
-138.00
-160.78
-188.57
-218.94
-247.41
-268.64
-278.45
-275.59
-262.26
-242.90
-221.76
-200.86
-179.35
-154.58
-124.12
-87.23
-44.90
1.29
50.47
102.36
155.89
207.61
251.27
279.46
286.87
273.08
243.55
207.75
175.46
153.35
143.20
142.44
146.26
150.00
150.49
146.27
137.18
123.88
107.76
90.87
75.72
64.49
58.47
57.48
59.89
63.35
65.43
64.34
59.21
49.93
37.20
22.34
7.19
-6.23
-16.14
-21.82
-23.98
-24.62
-26.17
-30.20
-36.72
-44.15
-50.32
-53.68
-54.18
-53.12
-52.10
-51.71
-50.88
-47.32
-39.01
-25.78
-9.95
4.31
12.86
13.62
7.43
-2.49
-12.52
-20.66
-27.17
-33.69
-41.22
-48.61
-52.47
-48.74
-34.92
-11.48
18.28
49.80
79.02
103.65
123.01
137.44
147.46
153.42
155.40
153.09
145.66
131.83
110.24
80.40
43.45
2.28
-39.04
-76.33
-106.02
-125.44
-132.65
-126.58
-107.49
-77.78
-42.20
-7.06
21.62
40.27
48.92
50.82
50.54
51.69
55.49
60.82
65.60
68.54
69.96
71.37
74.05
77.75
80.47
79.39
72.61
60.45
45.55
31.61
21.50
15.81
12.66
8.89
1.85
-9.16
-22.50
-35.00
-43.49
-46.01
-42.46
-34.45
-24.49
-15.03
-7.52
-1.96
2.98
9.24
18.12
29.19
39.89
46.23
44.47
32.92
12.78
-12.38
-38.24
-61.52
-80.63
-95.13
-104.33
-106.45
-99.09
-80.99
-53.67
-21.97
7.42
28.50
38.07
36.41
25.91
8.89
-13.92
-43.25
-79.60
-121.07
-162.62
-197.29
-218.81
-224.51
-216.69
-201.84
-188.05
-181.77
-185.11
-195.23
-205.89
-210.18
-203.39
-184.32
-154.68
-117.38
-75.05
-29.64
16.45
59.11
92.51
110.85
111.49
97.53
78.00
65.07
69.20
94.58
136.98
185.18
225.05
244.77
238.67
208.41
161.12
105.65
48.93
-5.97
-59.20
-111.51
-161.40
-203.86
-231.72
-238.83
-223.12
-187.74
-139.63
-86.56
-34.78
11.69
49.73
75.42
83.76
70.54
35.34
-16.37
-73.90
-124.82
-159.65
-175.16
-174.75
-165.56
-154.48
-145.19
-137.54
-129.07
-117.25
-101.30
-82.55
-63.69
-47.37
-35.01
-26.30
-19.40
-11.94
-1.94
11.31
26.94
42.95
57.13
67.98
75.18
79.14
80.20
77.86
70.87
58.01
39.18
15.96
-8.44
-29.87
-44.23
-48.36
-40.68
-21.35
7.93
44.46
85.05
126.45
165.59
199.77
226.67
244.82
253.94
255.16
250.67
242.98
234.08
224.97
215.96
207.22
199.41
193.44
189.86
188.01
185.76
180.00
167.83
147.52
118.88
83.09
42.52
0.62
-38.31
-69.89
-91.08
-101.62
-104.51
-104.99
-108.38
-117.86
-133.36
-152.12
-170.26
-184.45
-192.74
-194.29
-189.02
-177.25
-159.98
-139.22
-117.84
-98.78
-84.05
-74.18
-68.29
-64.68
-61.61
-57.63
-51.73
-43.01
-30.43
-12.87
10.50
39.59
72.88
107.29
138.90
164.15
180.93
189.19
190.50
186.96
179.99
169.53
154.25
132.36
103.01
67.09
27.34
-12.59
-49.47
-81.58
-108.86
-132.02
-151.25
-165.46
-172.52
-170.63
-159.93
-143.20
-124.85
-108.83
-96.31
-84.84
-69.40
-45.13
-9.83
34.63
83.11
129.56
169.35
200.80
224.85
243.63
258.84
270.77
278.34
279.95
274.44
261.62
242.22
217.34
187.97
154.69
117.75
77.24
33.45
-12.88
-60.45
-107.32
-151.23
-190.04
-222.20
-246.96
-264.23
-274.18
-277.00
-272.89
-262.51
-247.39
-229.95
-212.99
-198.70
-187.82
-179.48
-171.89
-163.48
-153.69
-143.04
-132.27
-121.26
-108.39
-91.03
-66.97
-36.22
-1.95
30.06
53.59
64.59
63.06
53.20
41.53
34.03
33.87
40.60
51.26
62.55
72.64
81.65
90.70
100.22
108.86
113.73
111.96
102.46
86.93
69.19
53.37
41.90
34.39
28.24
20.30
8.73
-5.85
-20.61
-31.54
-34.85
-28.04
-10.59
15.94
48.12
81.20
110.11
130.39
139.16
135.50
120.39
96.33
67.04
37.24
12.29
-2.58
-3.59
10.02
35.28
66.11
95.34
117.24
129.34
132.51
129.54
123.01
113.80
101.12
83.72
61.55
36.66
12.62
-6.98
-20.18
-27.37
-30.71
-32.64
-34.45
-35.81
-35.51
-32.80
-28.39
-24.46
-23.35
-25.94
-30.57
-33.62
-31.18
-21.31
-5.33
12.67
27.64
35.93
36.50
30.79
21.32
10.18
-1.64
-13.96
-26.39
-37.59
-45.24
-47.04
-41.88
-30.65
-16.02
-1.26
11.02
19.74
25.12
27.95
28.51
26.22
20.06
9.53
-4.20
-18.03
-27.70
-29.42
-21.68
-6.27
12.10
27.48
35.02
32.87
22.85
9.46
-2.33
-9.43
-11.97
-13.23
-18.16
-31.44
-55.70
-90.65
-133.26
-178.64
-221.31
-256.37
-280.27
-291.15
-288.67
-273.77
-248.45
-215.63
-178.93
-142.35
-109.35
-82.09
-60.74
-43.71
-28.49
-13.01
3.38
19.74
34.28
45.39
52.57
56.62
59.21
61.99
65.93
71.13
76.98
82.56
86.81
88.61
86.68
79.69
66.82
48.40
26.41
4.24
-14.13
-25.46
-28.40
-23.70
-13.61
-0.75
12.97
26.87
41.10
55.83
70.51
83.60
92.98
96.81
94.53
87.38
78.23
70.54
66.95
68.10
72.11
75.25
73.29
63.29
44.88
20.39
-6.09
-30.58
-50.79
-66.80
-80.28
-92.77
-104.09
-111.64
-111.36
-99.80
-76.10
-42.92
-5.55
30.35
61.14
86.22
107.47
127.44
147.44
166.72
182.67
191.93
191.78
180.99
160.44
133.24
104.23
79.00
62.19
55.90
58.89
67.27
76.20
81.93
82.70
78.48
69.78
56.97
40.41
21.25
1.88
-14.75
-26.65
-33.95
-38.98
-44.74
-52.74
-62.01
-69.93
-74.65
-77.17
-81.56
-92.92
-114.21
-143.88
-175.76
-201.36
-213.38
-208.60
-189.04
-160.69
-130.81
-105.12
-86.12
-73.14
-63.83
-56.09
-49.32
-44.53
-43.32
-46.47
-53.19
-61.28
-68.51
-74.06
-79.17
-86.36
-97.95
-114.48
-134.01
-152.89
-167.31
-174.88
-175.26
-169.86
-160.65
-149.04
-135.31
-118.82
-98.79
-75.03
-48.26
-19.84
8.77
36.35
62.09
85.26
105.04
120.54
131.23
137.42
140.49
142.55
145.61
150.67
157.34
164.15
169.46
172.51
173.95
175.53
179.22
186.04
195.38
205.02
211.94
213.49
208.29
196.77
180.84
163.27
146.64
132.56
121.33
112.34
104.89
99.00
95.77
96.81
103.09
113.88
126.52
137.31
143.23
143.47
139.72
134.92
131.29
128.78
124.90
116.23
100.63
78.78
54.09
31.07
12.92
-0.09
-10.59
-22.66
-39.68
-62.68
-89.82
-117.15
-139.96
-154.32
-158.05
-150.91
-134.37
-110.82
-82.97
-53.44
-24.46
2.31
25.96
46.41
64.45
81.24
97.86
114.42
129.65
141.06
145.74
141.43
127.52
105.29
77.42
47.29
17.79
-9.28
-33.50
-55.51
-76.21
-96.19
-115.19
-132.39
-146.68
-157.75
-166.67
-175.68
-187.15
-202.23
-220.31
-239.35
-257.32
-272.83
-285.83
-297.27
-308.03
-317.67
-324.08
-324.51
-316.45
-299.28
-273.53
-241.17
-205.03
-168.28
-133.36
-101.53
-72.99
-46.72
-21.77
3.54
30.48
59.38
89.26
118.75
146.48
171.46
193.25
203.67
195.00
164.71
117.88
63.02
8.37
-38.34
-75.96
-103.91
-122.36
-131.39
-132.01
-125.91
-116.39
-105.35
-93.88
-80.73
-64.03
-43.46
-19.57
5.46
29.29
48.61
63.73
76.80
93.28
118.58
155.20
203.24
259.80
321.40
383.21
444.73
488.46
501.01
478.53
429.87
371.60
315.41
279.30
252.81
223.66
184.44
137.10
89.08
40.70
-3.91
-43.35
-79.11
-116.99
-160.57
-210.72
-262.57
-308.63
-341.72
-356.67
-353.17
-334.49
-303.93
-267.63
-235.01
-213.08
-204.07
-205.67
-213.69
-225.65
-240.27
-257.57
-276.14
-294.16
-307.87
-314.22
-311.97
-301.75
-285.88
-266.58
-245.66
-223.59
-199.66
-171.84
-141.10
-108.76
-76.12
-44.01
-12.11
20.64
55.45
93.07
133.58
175.89
218.52
260.05
299.49
336.64
371.99
406.60
441.85
478.85
517.05
553.69
583.46
599.88
597.75
575.56
536.69
488.57
440.02
397.78
364.36
337.58
312.22
282.67
245.22
199.02
145.71
88.35
30.10
-26.31
-78.94
-126.76
-169.40
-207.25
-241.75
-275.39
-311.43
-352.69
-399.78
-449.62
-495.33
-527.86
-539.06
-524.88
-486.95
-431.83
-368.21
-303.77
-243.03
-187.40
-136.53
-90.05
-48.37
-12.18
18.53
45.31
71.00
98.87
131.30
169.03
210.79
253.28
291.97
322.17
340.43
345.69
339.76
326.31
309.24
290.91
271.23
248.28
220.02
186.22
149.68
115.83
90.52
77.88
78.63
89.79
105.84
120.97
130.60
132.95
128.84
119.96
108.27
95.35
82.39
70.37
60.56
53.31
48.46
45.18
40.36
30.46
12.79
-13.39
-46.74
-83.75
-121.81
-158.93
-194.29
-231.21
-274.10
-325.91
-385.64
-447.52
-501.21
-538.05
-551.77
-539.80
-506.70
-459.85
-406.68
-353.09
-303.94
-262.34
-234.05
-222.75
-207.73
-170.79
-101.96
-5.78
102.42
194.83
268.54
324.19
362.76
385.00
389.77
374.89
341.35
295.17
246.12
205.81
179.38
166.29
161.52
155.73
140.97
114.34
78.49
39.30
3.85
-25.05
-46.74
-60.97
-68.78
-71.26
-69.51
-65.00
-59.47
-53.47
-47.67
-40.98
-30.73
-14.95
6.59
31.80
56.56
75.80
85.55
83.21
69.09
46.26
18.91
-9.13
-35.38
-58.97
-79.90
-97.98
-112.74
-123.35
-129.30
-131.32
-131.73
-133.81
-141.04
-156.21
-181.06
-216.07
-260.06
-309.74
-359.65
-403.01
-433.38
-446.81
-443.16
-425.84
-400.21
-371.36
-342.58
-315.12
-289.06
-264.36
-241.22
-219.52
-197.93
-173.45
-141.77
-98.76
-42.37
25.58
98.82
167.68
222.03
254.71
264.33
256.13
240.17
227.84
227.92
243.85
273.54
311.14
349.72
383.48
408.98
424.99
431.93
431.13
424.05
412.33
397.56
380.94
363.02
343.67
322.28
298.39
272.18
243.95
214.82
186.25
159.42
134.38
110.34
86.05
61.15
36.90
14.38
-4.72
-19.46
-31.15
-43.88
-62.52
-91.29
-130.99
-178.97
-233.17
-290.65
-347.70
-399.62
-441.08
-466.35
-473.01
-462.88
-442.41
-423.57
-415.02
-417.67
-424.93
-427.35
-417.19
-394.00
-362.82
-311.86
-241.40
-160.89
-83.49
-18.37
25.78
54.20
71.11
80.06
84.98
88.01
92.13
100.47
114.79
134.38
157.49
180.64
201.55
219.68
233.39
243.78
253.12
263.43
275.59
290.09
305.83
321.63
336.27
347.07
353.95
357.57
358.31
355.46
347.97
334.18
313.50
286.93
246.73
193.97
137.19
87.61
52.33
32.09
23.09
20.99
23.01
26.34
30.62
35.01
37.83
37.03
31.50
21.06
7.19
-8.62
-25.71
-43.10
-61.14
-81.05
-103.70
-128.50
-153.01
-173.95
-188.94
-197.79
-201.71
-203.99
-208.96
-220.45
-240.01
-265.84
-292.94
-314.58
-324.63
-318.63
-295.84
-259.87
-217.44
-175.88
-140.30
-111.98
-88.63
-66.80
-42.35
-12.25
23.96
63.29
99.82
126.37
136.92
128.77
102.59
64.31
23.15
-12.05
-36.65
-51.35
-60.49
-69.23
-81.25
-99.71
-124.71
-153.66
-182.41
-206.63
-222.32
-226.31
-217.21
-185.53
-134.13
-77.05
-31.38
-6.89
-3.33
-14.45
-32.88
-52.81
-70.67
-87.56
-103.37
-116.59
-125.15
-127.87
-124.99
-117.62
-106.99
-93.74
-78.94
-63.52
-47.05
-28.18
-5.92
19.77
48.36
79.29
112.54
147.11
181.99
215.61
246.00
270.47
286.34
291.95
287.40
275.12
257.91
238.49
218.48
199.66
183.41
170.59
160.94
153.13
146.39
139.39
130.97
119.79
108.03
100.00
100.65
112.63
135.25
166.26
199.97
228.05
239.58
228.80
195.87
146.98
91.50
39.75
2.88
-12.69
-7.16
10.92
34.19
57.54
78.99
97.39
95.00
61.84
-0.94
-63.11
-115.42
-154.94
-186.82
-211.95
-231.69
-248.00
-260.31
-268.13
-271.68
-274.56
-276.65
-275.54
-267.32
-249.52
-221.50
-182.66
-134.84
-82.19
-32.07
11.82
49.00
81.49
110.93
137.61
161.59
181.92
197.56
207.13
212.42
216.73
222.90
230.88
237.84
240.20
235.14
222.02
202.07
179.00
156.70
137.61
121.70
107.31
92.81
77.54
61.85
46.25
31.24
16.91
3.38
-8.58
-17.24
-20.43
-16.80
-7.03
5.87
17.51
23.97
23.44
16.97
7.79
-0.29
-4.59
-4.55
-1.59
1.86
3.62
2.79
-0.12
-3.71
-6.64
-8.45
-9.69
-11.45
-14.42
-18.23
-21.45
-22.29
-19.66
-13.99
-7.10
-1.43
1.11
0.01
-3.90
-9.08
-14.30
-19.25
-24.46
-30.60
-37.66
-44.53
-49.35
-50.42
-47.17
-40.58
-32.89
-26.68
-23.82
-24.85
-28.92
-34.38
-39.72
-44.12
-47.67
-50.98
-54.54
-58.28
-61.57
-63.71
-64.60
-65.14
-67.04
-72.04
-80.96
-93.03
-105.82
-116.09
-120.85
-118.52
-109.52
-96.15
-81.89
-70.27
-63.87
-63.53
-68.14
-74.89
-80.04
-80.06
-72.65
-57.56
-36.77
-13.80
7.45
24.12
35.01
40.48
41.36
37.73
28.37
10.89
-17.15
-57.16
-108.53
-168.15
-230.25
-287.00
-329.83
-351.77
-350.05
-327.80
-293.95
-260.61
-239.11
-236.16
-251.95
-280.80
-313.88
-342.44
-360.19
-364.16
-354.37
-332.84
-302.77
-267.93
-232.14
-198.83
-170.70
-149.28
-134.63
-125.52
-119.67
-114.54
-108.14
-99.65
-89.65
-79.65
-71.33
-65.68
-62.58
-60.76
-58.40
-53.82
-46.08
-35.26
-22.27
-8.34
5.45
18.54
31.06
43.60
56.89
71.45
87.33
104.15
121.12
137.35
152.10
164.99
176.07
185.81
194.89
203.96
213.45
223.47
233.77
243.98
253.73
262.87
271.39
279.34
286.64
292.99
298.00
301.21
302.19
300.37
294.95
284.86
269.03
246.86
218.68
185.82
150.30
114.15
78.82
45.13
13.64
-14.62
-37.84
-53.63
-59.92
-55.98
-42.93
-23.60
-1.58
19.99
39.19
55.55
69.52
81.70
92.27
100.93
107.14
110.74
112.18
112.52
113.07
114.83
118.17
122.70
127.48
131.36
133.31
132.64
128.97
122.17
112.27
99.38
83.88
66.36
47.67
28.81
10.66
-6.02
-20.53
-31.91
-38.80
-39.53
-32.53
-17.09
6.10
34.75
65.36
94.17
118.05
135.15
145.06
148.38
146.15
139.38
128.94
115.60
100.28
84.11
68.29
53.90
41.58
31.53
23.70
18.01
14.63
14.02
16.85
23.52
33.78
46.41
59.32
70.03
76.15
76.10
69.39
56.83
40.08
21.19
2.30
-14.48
-27.03
-33.41
-32.30
-23.54
-8.25
11.15
31.53
49.95
64.56
74.89
81.57
85.63
87.80
88.96
89.54
89.55
88.81
87.16
84.86
82.43
80.33
78.73
78.75
81.35
86.66
93.76
100.92
106.38
108.81
107.29
101.37
93.23
85.63
80.25
76.80
73.34
67.71
58.56
45.77
30.45
17.61
13.49
23.05
48.29
88.38
140.75
202.07
268.52
316.17
325.63
288.67
212.10
112.86
8.34
-89.46
-174.29
-243.74
-295.96
-332.42
-353.43
-359.85
-354.62
-342.52
-328.48
-316.30
-308.27
-302.16
-293.89
-278.93
-254.83
-222.47
-185.57
-148.99
-117.14
-93.08
-78.19
-71.35
-69.58
-69.86
-70.26
-70.30
-70.37
-71.32
-74.21
-80.05
-89.21
-100.87
-113.52
-125.20
-133.83
-137.35
-134.19
-123.84
-106.99
-85.36
-60.88
-35.43
-10.62
12.05
31.35
46.28
56.16
60.86
60.85
57.48
52.61
48.03
44.31
41.29
38.29
34.62
29.93
24.15
17.41
9.81
1.26
-9.66
-24.15
-42.59
-64.31
-87.73
-111.07
-132.72
-151.27
-165.61
-176.88
-186.34
-195.01
-203.45
-211.92
-220.88
-231.10
-243.18
-257.09
-274.24
-294.57
-316.32
-336.22
-350.56
-356.72
-353.76
-342.20
-308.55
-246.41
-157.83
-54.44
47.55
134.78
201.06
247.10
278.02
300.26
316.61
328.80
336.84
340.26
339.01
333.55
324.63
312.95
298.81
280.07
253.97
220.19
181.27
141.92
107.04
79.76
60.35
46.51
33.67
18.26
-0.82
-22.10
-42.65
-59.92
-72.72
-81.29
-86.65
-90.47
-94.13
-98.83
-105.94
-116.90
-132.82
-153.59
-177.22
-199.96
-217.44
-225.87
-223.12
-209.23
-186.05
-156.45
-123.37
-89.06
-54.88
-21.52
10.66
41.26
69.86
96.19
120.34
142.72
163.92
184.33
203.83
221.68
236.72
247.81
254.38
256.62
255.32
251.29
244.93
235.93
223.60
207.52
188.15
167.07
146.65
129.17
115.81
106.25
98.89
91.56
82.60
71.36
58.61
46.22
36.54
31.31
31.18
35.36
41.79
47.68
50.07
46.74
37.02
22.05
4.37
-12.37
-24.57
-29.69
-27.05
-18.32
-6.57
4.90
13.47
16.94
14.64
7.08
-4.49
-18.30
-33.65
-50.11
-67.21
-84.49
-103.18
-123.96
-146.56
-169.73
-190.86
-209.14
-224.38
-236.36
-245.21
-253.79
-264.13
-276.81
-291.04
-304.09
-316.22
-328.36
-340.68
-352.72
-366.23
-381.00
-394.40
-402.36
-399.23
-384.75
-361.36
-332.46
-280.39
-199.99
-99.36
3.49
77.88
124.26
150.37
163.97
174.90
187.46
199.53
208.23
212.00
211.46
210.55
209.84
208.72
206.48
201.95
191.97
175.08
152.26
126.45
102.38
81.14
62.01
43.98
26.02
6.50
-14.53
-35.15
-52.25
-61.85
-62.76
-55.56
-41.85
-24.09
-5.55
11.20
24.90
35.64
44.87
53.40
61.52
68.94
74.65
77.11
75.10
68.23
57.21
43.97
30.79
20.11
14.15
14.44
21.65
35.45
54.64
77.49
102.16
126.94
150.48
171.74
189.78
203.65
212.32
214.93
211.14
201.51
187.57
171.66
156.29
143.53
134.50
129.31
127.46
128.35
131.52
136.61
142.92
148.95
152.41
150.56
140.97
122.04
93.39
55.73
10.82
-38.58
-88.71
-135.03
-173.06
-199.73
-214.62
-220.33
-221.55
-223.19
-228.28
-236.99
-246.91
-254.63
-257.33
-253.74
-244.06
-229.04
-209.34
-185.29
-157.42
-127.05
-96.52
-68.77
-46.37
-30.64
-21.18
-16.14
-12.94
-9.22
-3.61
3.96
12.45
20.31
26.17
29.30
29.73
28.05
25.06
21.39
17.45
13.38
9.33
5.47
1.98
-1.19
-4.53
-8.88
-15.30
-24.76
-37.79
-54.03
-71.89
-88.59
-100.85
-105.66
-101.09
-86.95
-64.91
-37.94
-9.20
19.10
46.17
71.93
96.32
118.78
138.24
153.35
163.23
167.87
168.47
166.76
163.55
158.51
150.62
138.98
122.80
101.48
74.67
43.03
8.97
-23.80
-50.46
-65.93
-66.60
-52.40
-26.97
1.13
21.15
28.33
22.58
5.63
-22.09
-58.52
-100.44
-143.36
-182.11
-211.31
-226.51
-225.98
-210.71
-183.54
-148.10
-108.43
-68.23
-30.44
3.46
33.31
59.06
80.41
96.97
108.58
115.24
117.34
115.55
110.94
104.56
96.83
87.69
76.99
64.90
51.88
38.49
25.23
12.56
0.83
-9.87
-19.52
-27.99
-34.93
-40.12
-43.56
-45.74
-47.33
-49.15
-51.91
-56.01
-61.24
-66.61
-70.33
-69.97
-62.91
-46.90
-21.08
13.39
53.08
93.03
128.04
154.13
169.46
174.55
171.83
163.99
152.65
137.67
117.52
90.21
54.56
11.11
-37.56
-86.59
-130.63
-165.27
-188.00
-198.19
-196.54
-184.44
-163.42
-134.79
-98.29
-53.53
-1.12
56.36
114.26
166.64
207.79
233.65
242.93
238.71
226.06
209.93
193.90
180.23
170.80
167.55
171.92
173.77
164.67
140.02
101.30
54.44
6.17
-38.16
-75.00
-102.49
-119.43
-126.44
-124.89
-117.49
-108.27
-101.51
-100.09
-104.62
-113.62
-124.66
-133.91
-138.54
-137.95
-133.56
-127.56
-121.42
-115.40
-108.93
-101.44
-92.38
-81.98
-71.42
-62.34
-56.34
-54.37
-56.41
-61.47
-67.45
-71.18
-69.16
-58.58
-38.21
-8.87
26.71
64.67
100.85
131.87
155.26
169.62
174.52
170.47
158.98
142.40
123.61
105.35
89.79
77.59
68.02
59.41
49.86
37.80
22.25
2.94
-19.73
-44.49
-70.05
-95.06
-118.23
-137.96
-152.01
-158.85
-158.78
-155.72
-152.55
-151.61
-154.64
-161.58
-171.33
-181.17
-186.94
-183.99
-168.60
-139.27
-98.08
-50.07
-1.38
42.84
79.87
109.43
132.78
151.28
165.72
175.89
181.36
182.46
180.46
177.20
174.03
171.29
168.28
164.03
157.89
149.97
141.17
132.63
125.23
119.13
113.82
108.39
102.00
94.12
84.65
73.89
62.30
50.36
38.26
25.87
12.81
-1.21
-16.14
-31.26
-45.18
-55.94
-61.51
-60.39
-52.32
-38.53
-21.60
-4.78
9.01
17.91
21.44
20.12
14.90
6.58
-4.43
-17.91
-33.45
-50.26
-67.13
-82.73
-96.07
-106.83
-115.42
-122.81
-130.12
-138.20
-147.25
-156.80
-165.89
-173.48
-178.76
-181.29
-181.00
-178.02
-172.79
-166.09
-158.99
-152.62
-147.62
-143.65
-139.26
-132.32
-120.97
-104.49
-83.76
-60.94
-38.57
-18.62
-1.79
12.23
24.15
34.33
42.50
48.21
51.50
53.44
56.03
61.52
71.39
85.60
102.42
118.94
132.03
139.25
139.35
132.37
119.33
101.76
81.26
59.20
36.52
13.83
-8.39
-29.71
-49.74
-68.10
-84.47
-98.34
-108.63
-113.63
-111.19
-99.50
-78.08
-48.38
-13.79
21.33
52.99
78.71
98.04
111.98
122.05
129.27
133.85
135.36
133.31
127.70
119.12
108.48
96.66
84.12
70.83
56.55
41.03
24.29
6.67
-11.26
-28.84
-45.50
-60.77
-74.36
-86.06
-95.80
-103.74
-110.17
-115.50
-119.90
-123.01
-123.64
-119.88
-109.58
-91.17
-64.44
-30.89
6.49
44.03
78.34
107.10
129.28
144.98
154.83
159.55
159.68
155.63
148.00
137.64
125.78
113.58
101.92
91.05
80.59
69.91
58.48
46.27
33.80
21.93
11.40
2.52
-4.93
-11.63
-18.32
-25.65
-33.99
-43.54
-54.36
-66.36
-79.00
-91.02
-100.33
-104.29
-100.53
-87.86
-66.88
-39.97
-10.56
17.92
42.96
63.34
78.90
90.04
97.16
100.50
100.16
96.41
89.70
80.72
70.15
58.53
46.18
33.34
20.30
7.48
-4.55
-15.33
-24.79
-33.46
-42.39
-52.85
-65.87
-81.64
-99.44
-117.73
-134.75
-149.01
-159.63
-166.19
-168.39
-165.72
-157.37
-142.46
-120.63
-92.39
-59.18
-23.15
13.36
48.27
79.90
106.95
128.35
143.12
150.60
150.76
144.54
133.82
121.11
108.80
98.43
90.19
83.00
75.11
65.04
52.39
38.15
24.39
13.48
7.21
6.10
9.11
13.85
17.09
15.63
7.15
-9.01
-31.37
-56.45
-79.43
-95.36
-100.56
-93.59
-75.45
-49.20
-18.87
11.65
39.22
61.90
78.73
89.43
94.15
93.38
87.95
79.03
68.05
56.38
45.04
34.57
24.94
15.80
6.76
-2.44
-11.68
-20.58
-28.65
-35.57
-41.35
-46.53
-51.93
-58.55
-67.19
-78.38
-92.05
-107.49
-123.20
-136.88
-145.78
-147.27
-139.61
-122.62
-97.92
-68.63
-38.44
-10.67
12.57
30.61
43.84
53.13
59.22
62.42
62.78
60.43
55.94
50.33
44.83
40.36
37.25
35.29
33.99
33.11
32.84
33.67
35.92
39.19
42.22
43.14
40.15
32.11
18.91
1.38
-19.04
-40.63
-61.45
-79.31
-91.73
-96.32
-91.47
-76.98
-54.45
-26.94
1.90
28.99
52.49
72.02
88.09
101.33
111.92
119.45
123.27
123.08
119.28
113.00
105.67
98.49
91.94
85.71
78.89
70.38
59.41
45.73
29.65
11.75
-7.24
-26.77
-46.49
-66.29
-86.19
-106.24
-126.41
-146.50
-165.92
-183.47
-197.31
-204.99
-204.07
-192.79
-170.93
-140.14
-103.68
-65.58
-29.42
2.44
29.19
51.16
69.10
83.52
94.42
101.44
104.31
103.19
98.75
92.01
83.96
75.23
66.00
56.12
45.43
33.96
22.13
10.54
-0.18
-9.68
-18.03
-25.71
-33.43
-41.94
-51.85
-63.49
-76.82
-91.19
-105.16
-116.50
-122.55
-120.91
-110.28
-91.05
-65.33
-36.37
-7.56
18.52
40.55
58.35
72.37
83.08
90.65
95.00
96.04
94.04
89.63
83.73
77.22
70.71
64.38
58.03
51.33
44.02
36.10
27.81
19.55
11.65
4.27
-2.71
-9.65
-17.01
-25.27
-34.83
-45.98
-58.75
-72.66
-86.43
-98.00
-104.69
-103.99
-94.44
-76.26
-51.49
-23.42
4.51
29.61
50.42
66.77
79.18
88.31
94.59
98.18
99.13
97.57
93.84
88.43
81.96
75.03
68.14
61.70
55.97
50.96
46.38
41.67
35.95
28.30
17.99
4.86
-10.51
-26.88
-42.61
-56.33
-67.40
-76.27
-84.23
-92.80
-102.75
-113.45
-122.72
-127.48
-124.91
-113.55
-93.92
-68.35
-40.21
-12.80
11.49
31.52
47.14
58.75
66.85
71.79
73.87
73.52
71.31
67.94
63.99
59.73
55.04
49.70
43.58
36.90
30.11
23.65
17.56
11.39
4.39
-4.08
-14.07
-24.89
-35.38
-44.43
-51.53
-57.10
-62.46
-69.36
-79.35
-93.00
-109.37
-125.90
-138.85
-144.26
-139.02
-121.90
-93.95
-58.32
-19.54
17.68
49.51
73.84
90.46
100.76
106.98
111.34
115.35
119.58
123.93
128.02
131.62
134.66
137.02
138.28
137.68
134.47
128.29
119.43
108.68
96.89
84.52
71.40
56.96
40.71
22.67
3.52
-15.62
-33.70
-50.05
-64.63
-77.94
-90.82
-104.02
-117.83
-131.79
-144.44
-153.51
-156.49
-151.45
-137.90
-117.14
-91.98
-65.88
-41.92
-21.96
-6.50
4.97
13.33
19.18
22.72
23.97
23.13
20.82
17.99
15.59
14.07
13.26
12.45
10.92
8.36
5.21
2.37
0.80
0.83
1.95
2.93
2.40
-0.56
-6.04
-13.25
-21.02
-28.19
-34.18
-39.06
-43.54
-48.67
-55.43
-64.48
-75.66
-87.89
-99.08
-106.49
-107.44
-100.12
-84.37
-61.74
-35.20
-7.97
17.21
38.85
56.60
70.84
82.08
90.56
96.26
99.13
99.34
97.42
94.06
89.98
85.60
81.04
76.15
70.79
64.86
58.50
52.01
45.76
40.04
34.85
29.93
24.78
18.87
11.74
3.28
-6.25
-16.30
-26.15
-35.21
-43.17
-50.09
-56.29
-62.32
-68.73
-76.11
-84.94
-95.38
-106.95
-118.20
-126.74
-129.74
-124.78
-110.84
-88.71
-60.90
-30.72
-1.20
25.74
49.53
70.68
90.16
108.86
127.23
145.23
162.48
178.42
192.61
204.79
215.03
223.77
231.75
239.90
249.09
259.75
271.44
282.44
289.84
290.14
280.27
258.73
226.30
185.86
141.46
96.92
54.60
14.93
-23.25
-61.64
-101.24
-141.56
-180.51
-215.08
-242.36
-260.66
-270.02
-272.19
-270.04
-266.72
-264.87
-266.03
-270.26
-275.99
-280.34
-279.72
-270.99
-252.54
-225.07
-191.54
-156.22
-123.34
-95.73
-74.32
-58.25
-45.70
-34.72
-23.76
-11.87
1.34
15.64
30.19
43.41
53.22
57.59
55.33
46.70
33.46
18.35
4.05
-7.80
-16.99
-24.50
-31.71
-39.37
-47.19
-53.96
-58.12
-58.60
-55.25
-48.78
-40.42
-31.43
-22.79
-15.24
-9.39
-5.96
-5.73
-9.48
-17.77
-30.88
-48.77
-71.06
-96.68
-123.65
-148.94
-168.89
-180.13
-180.57
-170.14
-150.65
-125.06
-96.29
-66.38
-36.20
-5.85
24.57
54.47
82.62
107.52
127.88
143.01
152.91
158.14
159.50
157.79
153.66
147.62
140.03
131.25
121.62
111.42
100.83
89.94
78.75
67.18
55.06
42.22
28.52
13.88
-1.57
-17.52
-33.42
-48.65
-62.65
-75.04
-85.79
-95.14
-103.62
-111.97
-121.08
-131.69
-144.03
-157.24
-169.16
-176.46
-175.64
-164.26
-142.07
-111.22
-75.64
-39.69
-6.76
21.33
44.33
62.83
77.56
89.06
97.76
104.25
109.26
113.50
117.15
119.73
120.22
117.70
111.89
103.57
94.46
86.56
81.34
79.08
78.69
78.16
75.42
69.06
58.73
45.17
29.73
13.89
-1.09
-14.39
-25.62
-34.82
-42.41
-49.33
-57.00
-66.97
-80.44
-97.48
-116.56
-134.52
-147.25
-150.84
-142.95
-123.66
-95.41
-62.18
-28.08
3.78
31.83
55.86
76.23
93.26
106.86
116.64
122.35
124.26
123.21
120.40
116.93
113.43
109.99
106.31
102.07
97.25
92.22
87.54
83.62
80.38
77.19
73.09
67.10
58.66
47.92
35.66
23.11
11.49
1.53
-6.76
-14.07
-21.64
-30.99
-43.47
-59.68
-79.03
-99.51
-117.83
-130.04
-132.45
-122.86
-101.32
-70.20
-33.45
4.71
40.95
73.18
100.74
123.95
143.26
158.95
171.12
180.00
186.33
191.09
194.50
196.36
196.38
194.06
189.22
182.29
174.35
167.17
162.12
158.35
153.91
146.76
134.80
116.59
91.93
61.90
29.36
-2.41
-32.36
-59.83
-83.68
-103.18
-118.04
-128.36
-134.63
-136.37
-132.69
-124.46
-111.54
-92.05
-64.88
-30.49
8.83
42.58
61.02
71.75
80.04
83.29
80.81
72.11
57.16
36.95
13.53
-9.30
-27.91
-42.23
-53.26
-61.50
-67.76
-72.70
-76.70
-79.92
-81.72
-81.54
-80.98
-81.61
-83.85
-87.82
-93.29
-99.69
-106.22
-111.53
-114.51
-115.81
-116.50
-117.33
-119.21
-122.87
-128.66
-136.14
-143.70
-148.71
-148.71
-141.41
-125.34
-100.81
-69.83
-35.53
-1.13
31.10
60.06
85.36
107.01
124.99
138.95
148.56
153.90
155.74
155.42
154.47
154.13
154.91
156.64
158.65
160.15
160.46
159.18
156.09
150.98
143.63
133.72
120.97
105.20
86.33
64.44
39.73
12.64
-16.09
-45.45
-74.21
-101.13
-125.06
-145.11
-160.62
-171.05
-175.98
-175.15
-168.75
-157.56
-142.98
-126.75
-110.46
-95.06
-80.73
-67.06
-53.58
-40.20
-27.48
-16.42
-8.15
-3.48
-2.64
-5.28
-10.45
-16.76
-22.52
-26.06
-26.15
-22.35
-15.26
-6.40
2.20
8.57
11.36
10.01
4.78
-3.72
-14.84
-28.24
-43.88
-61.90
-82.35
-104.95
-128.89
-152.81
-174.75
-192.26
-202.58
-203.07
-191.78
-168.03
-132.73
-88.26
-37.94
14.70
66.51
114.88
157.60
192.73
218.69
234.77
241.56
241.03
235.88
228.39
219.44
208.24
192.96
172.02
145.14
113.71
80.16
46.98
15.81
-12.68
-38.32
-60.80
-79.28
-92.63
-100.13
-102.02
-99.83
-96.01
-93.28
-93.73
-98.09
-105.39
-113.11
-117.89
-116.48
-106.84
-88.79
-63.99
-35.45
-6.53
19.87
42.00
59.23
71.90
80.87
87.15
91.72
95.39
98.69
101.90
105.06
107.99
110.43
112.17
113.07
113.22
112.83
112.22
111.48
110.32
107.87
102.83
93.86
80.16
61.75
39.61
15.27
-9.69
-33.98
-56.77
-77.57
-96.07
-112.08
-125.42
-135.83
-142.69
-144.88
-140.94
-129.67
-110.92
-86.24
-58.90
-33.18
-13.24
-2.07
-0.95
-9.28
-24.79
-43.57
-60.37
-69.46
-66.14
-48.60
-19.28
15.25
46.16
65.38
68.52
56.33
33.96
8.68
-13.01
-27.40
-34.06
-35.10
-33.67
-32.68
-34.10
-38.92
-47.33
-59.06
-73.49
-89.78
-106.90
-123.72
-139.02
-151.47
-159.54
-161.45
-155.53
-140.63
-116.72
-85.15
-48.42
-9.74
27.74
61.44
89.60
111.27
126.11
134.22
136.03
132.29
124.01
112.30
98.27
82.87
66.74
50.31
33.79
17.36
1.29
-14.00
-28.01
-40.38
-51.09
-60.42
-68.75
-76.19
-82.46
-86.76
-88.22
-86.18
-80.58
-72.00
-61.56
-50.60
-40.42
-31.90
-25.28
-19.84
-14.00
-5.62
7.14
25.22
48.11
74.12
101.00
126.59
149.25
167.82
181.48
189.52
191.51
187.46
178.10
164.63
148.35
130.13
110.26
88.57
64.94
39.72
13.93
-10.84
-32.71
-50.10
-62.13
-69.00
-71.94
-72.79
-73.41
-75.10
-78.32
-82.76
-87.66
-92.28
-96.19
-99.43
-102.44
-105.94
-110.61
-116.75
-123.93
-130.77
-135.14
-134.65
-127.49
-113.06
-92.29
-67.28
-40.74
-15.13
7.77
26.96
42.11
53.25
60.65
64.72
66.12
65.64
64.13
62.20
60.04
57.41
53.84
49.00
43.00
36.48
30.42
25.74
22.84
21.47
20.77
19.66
17.30
13.33
7.93
1.59
-5.15
-11.92
-18.71
-25.80
-33.71
-42.92
-53.48
-64.76
-75.32
-83.06
-85.81
-82.07
-71.58
-55.50
-36.09
-15.97
2.66
18.43
30.93
40.38
47.21
51.86
54.63
55.73
55.41
53.93
51.53
48.32
44.39
39.81
34.79
29.69
25.02
21.25
18.60
16.89
15.59
13.93
11.18
6.94
1.19
-5.71
-13.19
-20.75
-28.10
-35.37
-43.02
-51.77
-62.21
-74.50
-87.92
-100.80
-110.77
-115.32
-112.66
-102.26
-85.10
-63.30
-39.45
-15.89
5.76
24.67
40.58
53.49
63.43
70.48
74.81
76.75
76.73
75.18
72.40
68.50
63.53
57.64
51.13
44.56
38.60
33.78
30.30
27.88
25.80
23.10
18.95
12.90
5.04
-4.01
-13.42
-22.42
-30.62
-38.10
-45.39
-53.28
-62.58
-73.70
-86.37
-99.32
-110.31
-116.58
-115.55
-105.76
-87.40
-62.39
-33.78
-4.85
21.81
44.75
63.66
78.84
90.75
99.61
105.34
107.80
107.02
103.39
97.64
90.66
83.24
75.93
69.03
62.65
56.86
51.79
47.55
44.17
41.45
38.94
36.06
32.21
26.93
20.01
11.53
1.84
-8.61
-19.32
-29.87
-39.98
-49.57
-58.71
-67.62
-76.64
-86.22
-96.85
-108.78
-121.70
-134.38
-144.67
-149.87
-147.52
-136.26
-116.49
-90.29
-60.81
-31.30
-4.28
18.90
37.94
53.14
64.95
73.69
79.54
82.72
83.59
82.69
80.64
77.97
75.09
72.16
69.25
66.34
63.46
60.61
57.81
55.01
52.12
49.03
45.54
41.45
36.48
30.33
22.81
13.91
3.92
-6.66
-17.21
-27.24
-36.52
-45.14
-53.47
-62.07
-71.60
-82.66
-95.52
-109.77
-124.03
-135.93
-142.51
-141.08
-130.12
-109.93
-82.68
-51.69
-20.52
8.02
32.34
52.02
67.44
79.20
87.86
93.75
97.10
98.13
97.18
94.62
90.91
86.43
81.50
76.32
71.03
65.77
60.59
55.60
50.81
46.20
41.65
37.01
32.03
26.48
20.14
12.89
4.75
-4.09
-13.28
-22.40
-31.14
-39.30
-46.96
-54.45
-62.34
-71.33
-82.04
-94.67
-108.54
-121.90
-132.07
-136.06
-131.48
-117.45
-94.92
-66.49
-35.56
-5.39
21.63
44.25
62.22
75.85
85.63
92.06
95.55
96.49
95.27
92.29
88.00
82.84
77.26
71.62
66.27
61.43
57.22
53.60
50.40
47.34
44.18
40.70
36.76
32.21
26.87
20.53
13.04
4.49
-4.80
-14.31
-23.52
-32.12
-40.05
-47.52
-54.90
-62.66
-71.36
-81.55
-93.53
-106.93
-120.36
-131.32
-136.79
-134.06
-121.80
-100.55
-72.64
-41.43
-10.31
18.12
42.38
62.00
77.19
88.43
96.26
101.14
103.48
103.62
101.88
98.55
94.01
88.64
82.85
77.03
71.46
66.35
61.77
57.67
53.87
50.11
46.15
41.80
36.98
31.69
25.94
19.64
12.61
4.73
-3.99
-13.28
-22.67
-31.63
-39.81
-47.18
-54.09
-61.23
-69.38
-79.29
-91.37
-105.39
-120.15
-133.49
-142.46
-144.21
-136.78
-119.90
-95.21
-65.77
-35.14
-6.38
18.60
39.15
55.53
68.46
78.61
86.49
92.36
96.39
98.67
99.25
98.14
95.32
90.83
84.88
77.86
70.43
63.28
56.97
51.73
47.31
43.14
38.57
33.22
27.15
20.81
14.74
9.27
4.31
-0.71
-6.51
-13.62
-22.17
-31.75
-41.65
-51.07
-59.47
-66.77
-73.38
-80.10
-87.87
-97.35
-108.51
-120.15
-129.94
-134.86
-132.01
-119.71
-98.15
-69.42
-37.03
-4.72
24.43
48.69
67.63
81.76
91.94
98.97
103.45
105.79
106.35
105.46
103.44
100.52
96.79
92.27
86.97
81.02
74.76
68.77
63.61
59.69
57.00
55.10
53.16
50.32
45.96
39.96
32.74
25.07
17.72
11.13
5.24
-0.49
-6.83
-14.38
-23.36
-33.46
-44.01
-54.22
-63.54
-71.82
-79.38
-86.90
-95.17
-104.96
-116.65
-129.95
-143.55
-155.08
-161.43
-159.62
-147.76
-125.83
-95.95
-61.68
-27.01
4.80
31.86
53.71
70.82
84.03
94.08
101.44
106.47
109.41
110.57
110.20
108.52
105.65
101.66
96.64
90.75
84.37
78.00
72.25
67.63
64.26
61.84
59.67
56.89
52.79
47.17
40.35
33.00
25.83
19.18
12.85
6.20
-1.57
-11.08
-22.45
-35.27
-48.72
-61.88
-73.95
-84.52
-93.68
-101.92
-110.09
-119.11
-129.66
-141.76
-154.42
-165.53
-172.17
-171.37
-161.09
-141.01
-112.79
-79.59
-45.20
-12.90
15.23
38.45
57.06
71.75
83.27
92.08
98.51
102.82
105.35
106.45
106.43
105.43
103.40
100.21
95.75
90.21
84.05
78.04
72.95
69.26
66.94
65.33
63.48
60.45
55.74
49.48
42.31
35.07
28.41
22.45
16.71
10.40
2.72
-6.70
-17.62
-29.36
-41.04
-51.95
-61.83
-70.87
-79.56
-88.58
-98.57
-110.03
-123.10
-137.17
-150.67
-161.09
-165.44
-161.18
-147.18
-124.25
-95.02
-63.12
-32.12
-4.60
18.22
36.33
50.46
61.48
70.14
76.92
82.05
85.67
87.85
88.64
88.12
86.34
83.44
79.67
75.48
71.44
68.17
66.03
64.95
64.44
63.68
61.93
58.78
54.31
48.96
43.24
37.46
31.56
25.17
17.80
9.05
-1.11
-12.38
-24.09
-35.53
-46.14
-55.80
-64.93
-74.39
-85.21
-98.07
-112.81
-128.06
-141.31
-149.47
-149.76
-140.65
-122.44
-97.29
-68.55
-39.75
-13.65
8.21
25.57
38.96
49.19
56.95
62.64
66.47
68.54
68.98
67.94
65.66
62.47
58.71
54.75
50.92
47.45
44.48
41.99
39.82
37.72
35.41
32.65
29.31
25.34
20.74
15.47
9.38
2.31
-5.77
-14.73
-24.20
-33.75
-43.01
-51.92
-60.74
-70.04
-80.52
-92.76
-106.86
-122.11
-136.83
-148.42
-154.02
-151.24
-139.10
-118.40
-91.65
-62.22
-33.42
-7.62
13.99
31.32
44.86
55.25
63.05
68.62
72.24
74.15
74.56
73.68
71.67
68.72
65.08
61.05
57.00
53.28
50.14
47.62
45.57
43.68
41.55
38.86
35.43
31.23
26.32
20.73
14.40
7.24
-0.81
-9.73
-19.35
-29.48
-39.98
-50.87
-62.32
-74.66
-88.25
-103.43
-120.31
-138.49
-156.81
-173.18
-184.87
-189.12
-184.06
-169.34
-146.42
-118.06
-87.38
-57.03
-28.59
-2.55
21.26
43.19
63.42
81.86
98.30
112.50
124.25
133.44
140.01
144.03
145.68
145.40
143.77
141.43
138.93
136.58
134.35
131.93
128.87
124.75
119.38
112.79
105.23
96.97
88.11
78.59
68.25
57.00
44.97
32.51
20.14
8.27
-2.92
-13.58
-24.09
-35.03
-47.04
-60.60
-75.73
-91.65
-106.51
-117.61
-122.13
-118.10
-105.29
-85.46
-61.85
-38.07
-16.95
0.14
13.26
23.37
31.60
38.75
45.24
51.17
56.50
61.15
65.02
67.99
69.91
70.71
70.52
69.69
68.73
68.10
68.05
68.39
68.52
67.57
64.74
59.63
52.32
43.33
33.30
22.74
11.82
0.43
-11.67
-24.55
-37.99
-51.48
-64.31
-75.85
-85.68
-93.77
-100.46
-106.40
-112.39
-118.96
-126.07
-132.68
-136.92
-136.49
-129.49
-115.34
-95.09
-71.30
-47.13
-25.43
-7.97
4.79
13.37
18.68
21.54
22.50
21.93
20.21
17.85
15.49
13.81
13.34
14.38
17.03
21.15
26.49
32.78
39.71
47.05
54.57
62.03
69.12
75.52
80.82
84.63
86.54
86.20
83.37
77.92
69.93
59.67
47.61
34.26
20.10
5.40
-9.84
-25.92
-43.31
-62.43
-83.31
-105.20
-126.38
-144.29
-156.03
-159.26
-153.03
-138.24
-117.35
-93.62
-70.08
-48.65
-29.91
-13.43
1.70
16.20
30.29
43.63
55.60
65.48
72.80
77.42
79.54
79.65
78.42
76.49
74.41
72.57
71.20
70.32
69.79
69.28
68.37
66.56
63.44
58.77
52.44
44.51
35.13
24.49
12.80
0.35
-12.53
-25.41
-37.88
-49.61
-60.57
-71.07
-81.75
-93.33
-106.16
-119.77
-132.62
-142.22
-145.84
-141.36
-128.06
-107.04
-80.84
-52.70
-25.58
-1.51
18.64
34.88
47.71
57.63
65.08
70.35
73.73
75.49
75.86
75.03
73.13
70.29
66.83
63.26
60.31
58.67
58.76
60.50
63.31
66.26
68.43
69.14
68.24
66.06
63.17
60.10
57.04
53.74
49.65
44.15
36.88
27.91
17.74
7.11
-3.31
-13.20
-22.71
-32.44
-43.19
-55.75
-70.62
-87.66
-105.78
-122.91
-136.19
-142.66
-140.23
-128.48
-108.90
-84.55
-59.02
-35.33
-15.31
0.60
12.95
22.65
30.45
36.77
41.67
45.04
46.77
46.83
45.36
42.67
39.22
35.56
32.23
29.68
28.22
27.86
28.39
29.34
30.18
30.43
29.80
28.27
25.99
23.13
19.77
15.88
11.33
6.09
0.19
-6.18
-12.87
-19.81
-27.12
-35.12
-44.18
-54.76
-67.22
-81.65
-97.59
-113.73
-127.86
-137.23
-139.28
-132.51
-117.17
-95.22
-69.78
-44.14
-20.83
-1.13
14.83
27.63
38.01
46.51
53.41
58.73
62.46
64.55
65.10
64.28
62.41
59.90
57.18
54.65
52.57
51.02
49.93
49.11
48.28
47.16
45.55
43.32
40.50
37.13
33.26
28.80
23.60
17.49
10.34
2.26
-6.49
-15.55
-24.61
-33.56
-42.60
-52.24
-63.16
-75.94
-90.67
-106.58
-121.85
-133.80
-139.53
-136.82
-124.92
-104.90
-79.35
-51.61
-24.70
-0.59
20.06
37.65
53.04
67.10
80.35
92.93
104.65
115.18
124.07
130.88
135.18
136.73
135.58
132.15
127.21
121.67
116.36
111.70
107.57
103.36
98.19
91.37
82.60
72.16
60.72
48.93
37.09
24.98
11.99
-2.54
-18.86
-36.66
-55.12
-73.19
-90.01
-105.20
-118.82
-131.35
-143.44
-155.62
-168.00
-179.97
-189.97
-195.76
-194.83
-185.35
-166.85
-140.70
-109.74
-77.55
-47.39
-21.45
-0.52
15.77
28.44
38.59
47.03
54.19
60.18
64.96
68.45
70.63
71.59
71.46
70.49
68.98
67.29
65.76
64.58
63.71
62.93
61.78
59.81
56.71
52.39
47.04
40.88
34.10
26.72
18.57
9.50
-0.49
-11.14
-21.96
-32.38
-42.00
-50.73
-58.86
-67.01
-75.98
-86.46
-98.56
-111.55
-123.62
-132.17
-134.41
-128.38
-113.68
-91.77
-65.56
-38.46
-13.38
7.95
25.10
38.52
49.02
57.24
63.57
68.16
71.11
72.56
72.67
71.65
69.66
66.92
63.69
60.31
57.19
54.65
52.85
51.67
50.75
49.56
47.65
44.82
41.12
36.84
32.27
27.50
22.40
16.66
9.95
2.10
-6.75
-16.24
-25.92
-35.39
-44.50
-53.38
-62.51
-72.60
-84.38
-98.19
-113.50
-128.66
-140.98
-147.40
-145.46
-134.16
-114.47
-89.00
-61.15
-34.08
-9.92
10.48
27.24
40.96
52.28
61.68
69.44
75.78
80.81
84.52
86.80
87.50
86.52
84.01
80.37
76.20
72.17
68.81
66.38
64.78
63.55
61.97
59.35
55.24
49.67
43.10
36.28
29.86
24.12
18.80
13.28
6.91
-0.65
-9.22
-18.21
-26.94
-34.97
-42.32
-49.43
-57.05
-65.97
-76.79
-89.60
-103.71
-117.43
-128.25
-133.35
-130.43
-118.61
-98.80
-73.63
-46.57
-20.87
1.24
18.93
32.55
43.03
51.35
58.23
64.04
68.88
72.76
75.67
77.57
78.40
78.05
76.45
73.69
70.14
66.43
63.29
61.30
60.55
60.62
60.62
59.59
56.91
52.45
46.66
40.28
33.96
27.97
22.13
15.88
8.60
-0.03
-9.95
-20.66
-31.44
-41.66
-51.01
-59.59
-67.86
-76.47
-86.11
-97.35
-110.27
-124.20
-137.46
-147.44
-151.26
-146.62
-132.77
-110.92
-83.90
-55.33
-28.36
-5.03
14.09
29.40
41.74
51.87
60.25
67.09
72.49
76.56
79.35
80.90
81.15
80.04
77.60
74.07
69.92
65.77
62.15
59.35
57.25
55.31
52.91
49.47
44.78
39.09
32.88
26.66
20.70
14.84
8.61
1.41
-7.19
-17.23
-28.32
-39.79
-50.91
-61.13
-70.31
-78.76
-87.16
-96.43
-107.28
-119.83
-133.14
-145.12
-152.88
-153.55
-145.24
-127.79
-102.94
-73.85
-44.04
-16.44
7.29
26.79
42.60
55.61
66.54
75.81
83.56
89.80
94.52
97.71
99.40
99.59
98.37
95.88
92.40
88.33
84.17
80.39
77.38
75.26
73.91
72.93
71.69
69.51
65.88
60.64
53.99
46.44
38.61
30.97
23.60
16.22
8.27
-0.78
-11.23
-22.97
-35.50
-48.08
-60.00
-70.78
-80.27
-88.77
-96.85
-105.35
-115.11
-126.69
-139.94
-153.75
-165.93
-173.61
-174.01
-165.33
-147.44
-122.02
-92.05
-60.93
-31.52
-5.57
16.40
34.71
50.05
63.06
74.14
83.43
90.96
96.73
100.81
103.30
104.31
103.88
102.17
99.39
96.03
92.70
90.00
88.33
87.69
87.66
87.52
86.58
84.34
80.77
76.19
71.13
66.02
60.98
55.68
49.56
42.05
32.90
22.39
11.20
0.19
-10.04
-19.32
-27.95
-36.49
-45.38
-54.80
-64.51
-74.00
-82.73
-90.37
-96.90
-102.70
-108.52
-115.36
-124.21
-135.58
-149.03
-162.81
-173.90
-178.80
-174.52
-159.75
-135.39
-104.39
-70.67
-37.99
-8.90
15.57
35.65
52.20
66.07
77.84
87.70
95.69
101.79
106.02
108.47
109.26
108.55
106.52
103.42
99.50
95.15
90.78
86.82
83.61
81.26
79.54
77.94
75.78
72.45
67.68
61.49
54.20
46.21
37.91
29.55
21.24
12.91
4.39
-4.58
-14.22
-24.52
-35.23
-45.79
-55.59
-64.15
-71.38
-77.60
-83.51
-90.05
-98.11
-108.34
-120.75
-134.35
-147.10
-156.14
-158.50
-152.08
-136.37
-112.73
-84.02
-53.69
-24.85
0.50
21.57
38.60
52.39
63.81
73.54
81.89
88.85
94.19
97.67
99.12
98.60
96.30
92.53
87.70
82.28
76.82
71.91
68.06
65.53
64.15
63.31
62.16
59.85
55.85
50.12
43.09
35.41
27.68
20.18
12.72
4.82
-4.12
-14.46
-26.17
-38.75
-51.38
-63.21
-73.67
-82.62
-90.39
-97.66
-105.28
