1649816234.00
64.000000
-0.00
-0.00
-0.00
-0.00
-0.00
-0.00
-0.00
-0.00
-0.00
-0.00
0.00
0.01
0.01
-0.00
-0.03
-0.05
-0.05
0.00
0.13
0.36
0.66
1.01
1.37
1.72
2.06
2.40
2.79
3.24
3.80
4.42
5.06
5.66
6.20
6.68
7.15
7.68
8.31
9.14
10.09
11.04
11.88
12.56
13.14
13.76
14.65
15.96
17.91
20.32
22.90
25.38
27.58
29.57
31.68
34.32
37.81
42.54
48.15
54.10
59.83
64.97
69.58
74.14
79.34
85.71
93.76
103.00
112.62
121.73
129.77
136.75
143.30
150.75
157.77
166.64
177.95
191.79
206.97
220.57
228.25
225.36
208.53
176.87
132.76
80.05
23.07
-34.94
-92.44
-149.16
-205.23
-260.37
-313.74
-363.87
-409.83
-450.91
-486.50
-515.74
-537.23
-549.22
-549.96
-538.37
-514.21
-478.67
-433.88
-382.45
-327.02
-269.84
-212.63
-156.66
-102.95
-52.37
-5.90
35.58
71.43
101.35
125.50
144.38
158.69
169.15
176.37
180.75
182.57
182.07
179.51
175.23
169.65
163.18
156.15
148.81
141.30
133.69
126.02
118.33
110.69
103.16
95.80
88.68
81.83
75.25
68.95
62.95
57.25
51.86
46.78
42.03
37.59
33.45
29.61
26.07
22.81
19.83
17.11
14.67
12.48
10.54
8.83
7.35
6.07
4.97
4.05
3.27
2.62
2.09
1.65
1.30
1.01
0.79
0.61
0.48
0.37
0.29
0.24
0.20
0.18
0.17
0.17
0.18
0.20
0.23
0.26
0.30
0.34
0.38
0.43
0.48
0.53
0.59
0.64
0.70
0.77
0.83
0.90
0.98
1.06
1.15
1.26
1.37
1.50
1.64
1.80
1.97
2.17
2.39
2.64
2.91
3.21
3.54
3.90
4.30
4.73
5.20
5.71
6.25
6.84
7.47
8.14
8.86
9.62
10.44
11.30
12.20
13.16
14.16
15.23
16.37
17.57
18.82
20.13
21.44
22.74
23.93
24.92
25.62
25.88
25.61
24.70
23.08
20.73
17.68
13.96
9.74
5.14
0.38
-4.37
-8.90
-13.04
-16.65
-19.62
-21.88
-23.42
-24.27
-24.52
-24.24
-23.54
-22.48
-21.12
-19.49
-17.60
-15.46
-13.15
-10.76
-8.36
-6.02
-3.75
-1.56
0.62
2.85
5.25
7.75
10.29
12.86
15.45
18.13
21.01
24.25
28.06
32.59
37.59
42.77
47.88
52.71
57.16
61.31
65.39
69.69
74.50
79.42
84.06
87.99
90.96
92.95
94.21
95.26
96.66
98.89
101.37
103.41
104.20
103.02
99.38
93.03
83.64
70.27
56.19
42.16
28.27
14.23
-0.51
-16.60
-34.60
-54.47
-75.11
-94.04
-108.56
-115.90
-114.58
-105.32
-90.99
-75.56
-62.62
-54.21
-50.49
-50.74
-53.56
-57.58
-61.86
-65.80
-69.15
-71.91
-74.41
-77.16
-80.93
-86.02
-92.24
-99.05
-105.85
-112.26
-118.17
-123.76
-129.35
-135.45
-142.37
-149.97
-157.36
-162.76
-163.79
-158.05
-144.06
-121.86
-93.17
-60.91
-28.27
2.10
28.61
50.61
68.17
81.62
91.39
97.94
101.80
103.55
103.63
102.27
99.37
94.68
87.97
79.38
69.52
59.41
50.21
42.79
37.35
33.26
29.22
23.70
15.42
3.84
-10.82
-27.66
-45.35
-62.51
-78.00
-91.26
-102.41
-112.33
-122.25
-133.22
-145.28
-157.18
-166.49
-170.43
-167.00
-155.71
-137.78
-115.47
-91.07
-66.14
-41.28
-16.60
7.66
30.68
51.13
67.60
79.22
85.92
88.34
87.47
84.19
79.14
72.65
65.04
56.73
48.26
40.20
32.98
26.70
21.29
16.44
11.81
7.07
1.98
-3.57
-9.55
-15.86
-22.33
-28.93
-35.79
-43.26
-51.77
-61.57
-72.59
-84.32
-95.83
-105.91
-113.15
-116.10
-113.43
-104.22
-88.21
-66.04
-39.27
-10.04
19.39
47.09
71.81
92.93
110.41
124.44
135.26
143.12
148.18
150.59
150.46
147.96
143.29
136.70
128.57
119.29
109.35
99.26
89.62
80.90
73.43
67.18
61.77
56.49
50.50
43.12
34.03
23.37
11.72
-0.14
-11.47
-21.86
-31.39
-40.71
-50.90
-63.21
-78.39
-96.23
-115.18
-132.39
-144.43
-148.22
-141.97
-125.78
-101.53
-72.28
-41.33
-11.47
15.37
38.21
56.71
70.96
81.30
88.18
92.17
93.84
93.74
92.22
89.43
85.29
79.65
72.51
64.26
55.74
48.10
42.38
39.02
37.62
36.98
35.60
32.26
26.44
18.47
9.18
-0.51
-10.03
-19.29
-28.67
-38.81
-50.44
-64.11
-79.95
-97.27
-114.37
-128.60
-136.98
-137.03
-127.64
-109.44
-84.65
-56.27
-27.27
0.12
24.51
45.21
61.86
74.27
82.37
86.40
86.97
84.94
81.18
76.34
70.70
64.26
56.97
48.94
40.57
32.49
25.36
19.53
14.96
11.10
7.13
2.23
-4.09
-11.81
-20.39
-29.00
-36.84
-43.50
-49.13
-54.54
-60.89
-69.40
-80.95
-95.72
-112.82
-130.31
-145.35
-154.78
-155.90
-147.34
-129.46
-104.36
-75.16
-45.09
-16.58
9.12
31.81
51.78
69.30
84.29
96.38
105.22
110.82
113.54
114.03
112.85
110.29
106.34
100.94
94.23
86.74
79.31
72.83
67.86
64.38
61.74
58.91
54.80
48.71
40.48
30.58
19.83
9.09
-1.08
-10.59
-19.76
-29.23
-39.72
-51.88
-66.06
-82.03
-98.71
-113.99
-125.05
-129.02
-123.90
-109.37
-86.97
-59.68
-30.94
-3.64
20.49
40.89
57.82
71.72
82.90
91.42
97.24
100.42
101.24
100.10
97.44
93.60
88.75
82.97
76.40
69.31
62.15
55.47
49.72
45.12
41.47
38.18
34.46
29.56
23.02
14.87
5.56
-4.20
-13.77
-22.77
-31.24
-39.57
-48.36
-58.26
-69.77
-83.03
-97.62
-112.31
-125.09
-133.40
-134.79
-127.75
-112.25
-89.86
-63.23
-35.36
-8.73
15.09
35.47
52.39
66.06
76.67
84.37
89.32
91.81
92.26
91.06
88.55
84.87
80.05
74.08
67.13
59.69
52.45
46.21
41.53
38.50
36.61
34.92
32.34
27.99
21.55
13.32
4.12
-5.05
-13.44
-20.80
-27.54
-34.55
-42.92
-53.50
-66.52
-81.39
-96.56
-109.76
-118.41
-120.26
-113.95
-99.56
-78.53
-53.32
-26.72
-1.14
21.78
41.20
56.87
68.83
77.18
82.16
84.14
83.65
81.32
77.72
73.22
67.95
61.93
55.23
48.10
41.04
34.65
29.44
25.56
22.76
20.33
17.36
12.92
6.45
-2.18
-12.62
-24.19
-36.14
-47.89
-59.17
-70.15
-81.27
-93.05
-105.61
-118.32
-129.62
-137.29
-139.06
-133.44
-120.28
-100.90
-77.68
-53.28
-29.89
-8.84
9.40
24.83
37.62
47.92
55.91
61.82
66.01
68.79
70.31
70.45
68.91
65.44
60.07
53.25
45.71
38.34
31.81
26.36
21.81
17.60
13.17
8.09
2.29
-3.99
-10.35
-16.41
-22.01
-27.36
-32.98
-39.71
-48.36
-59.43
-72.63
-86.67
-99.30
-107.76
-109.61
-103.50
-89.59
-69.51
-45.69
-20.63
3.73
26.20
46.14
63.23
77.19
87.90
95.44
100.16
102.63
103.32
102.48
100.06
95.90
89.92
82.39
73.90
65.21
57.04
49.77
43.40
37.52
31.51
24.74
16.82
7.71
-2.22
-12.38
-22.16
-31.28
-39.87
-48.53
-58.12
-69.52
-83.19
-98.89
-115.42
-130.65
-141.83
-146.28
-142.10
-128.87
-107.80
-81.44
-52.98
-25.32
-0.47
20.69
38.14
52.33
63.71
72.60
79.16
83.54
85.99
86.78
86.12
84.08
80.54
75.42
68.83
61.26
53.53
46.60
41.21
37.61
35.34
33.44
30.69
26.12
19.27
10.42
0.38
-9.75
-19.12
-27.39
-34.86
-42.37
-50.96
-61.55
-74.55
-89.60
-105.41
-119.82
-130.13
-133.78
-129.00
-115.48
-94.48
-68.52
-40.59
-13.37
11.33
32.71
50.67
65.45
77.29
86.33
92.70
96.58
98.28
98.19
96.61
93.74
89.66
84.44
78.28
71.48
64.53
57.92
52.10
47.23
43.11
39.19
34.67
28.83
21.25
11.95
1.48
-9.36
-19.81
-29.48
-38.49
-47.49
-57.41
-69.05
-82.77
-98.10
-113.66
-127.23
-136.21
-138.31
-132.23
-118.10
-97.43
-72.72
-46.70
-21.70
0.73
19.82
35.39
47.52
56.36
62.15
65.20
66.00
65.02
62.73
59.43
55.31
50.51
45.28
40.07
35.49
32.06
30.00
29.04
28.44
27.32
24.81
20.48
14.47
7.47
0.23
-6.70
-13.20
-19.64
-26.58
-34.79
-44.87
-56.79
-69.71
-82.12
-91.92
-96.75
-94.66
-84.39
-66.27
-41.97
-13.97
15.38
43.81
69.59
91.55
108.76
120.88
127.23
127.15
120.45
108.04
91.58
73.73
57.57
43.19
31.44
21.41
9.99
-6.35
-28.34
-53.82
-79.72
-103.20
-122.68
-137.18
-147.45
-155.21
-163.07
-169.19
-173.24
-175.66
-177.62
-180.67
-184.49
-188.65
-192.77
-197.63
-201.49
-202.02
-196.38
-182.65
-160.18
-127.48
-85.13
-36.27
12.23
56.55
94.64
126.68
153.55
176.80
201.15
230.30
265.00
300.09
332.38
359.07
378.59
389.62
374.94
327.54
254.65
191.35
146.41
119.89
103.57
93.81
87.69
82.78
79.84
79.25
79.63
75.45
65.06
49.07
29.80
8.79
-13.14
-33.82
-52.16
-68.67
-86.67
-105.82
-123.46
-135.57
-139.36
-133.81
-118.54
-95.13
-66.93
-39.28
-15.07
4.76
20.72
33.42
43.36
51.46
58.36
64.17
67.98
69.69
69.52
67.86
64.76
60.15
54.36
47.82
40.97
33.85
26.59
19.12
11.33
3.01
-5.85
-15.10
-24.57
-34.12
-43.81
-53.79
-64.26
-75.36
-87.20
-99.87
-113.25
-126.80
-139.17
-148.35
-152.01
-148.33
-136.70
-118.13
-94.92
-69.98
-45.95
-24.59
-6.65
7.90
19.42
28.23
34.54
38.47
40.14
39.83
37.88
34.63
30.39
25.35
19.71
13.78
7.99
2.82
-1.48
-4.97
-8.18
-11.93
-16.97
-23.76
-32.21
-41.75
-51.59
-61.02
-69.67
-77.62
-85.40
-93.74
-103.28
-114.18
-125.79
-136.53
-144.08
-145.97
-140.35
-126.63
-105.73
-79.82
-51.69
-23.95
1.51
23.76
42.61
58.28
71.02
81.06
88.53
93.62
96.57
97.63
97.02
94.85
91.12
85.94
79.59
72.62
65.72
59.50
54.16
49.50
44.95
39.88
33.87
26.92
19.40
11.84
4.70
-1.88
-8.13
-14.59
-21.96
-30.90
-41.88
-54.89
-69.22
-83.33
-95.05
-101.96
-102.16
-94.81
-80.53
-61.24
-39.57
-18.11
1.24
17.55
30.77
41.36
49.93
56.97
62.66
66.93
69.50
70.04
68.32
64.36
58.49
51.32
43.65
36.31
29.91
24.78
20.73
17.13
12.98
7.29
-0.44
-9.68
-18.68
-24.85
-25.63
-19.65
-7.55
7.80
22.08
30.84
30.78
20.65
1.30
-24.75
-54.02
-82.67
-106.99
-123.67
-130.44
-126.61
-113.38
-93.68
-71.26
-49.62
-30.94
-15.77
-3.46
6.97
16.05
23.58
28.94
31.64
31.78
30.05
27.41
24.62
22.08
19.93
18.28
17.50
18.13
20.71
25.40
31.81
38.95
45.58
50.45
52.69
52.02
48.71
43.49
37.17
30.33
23.00
14.71
4.60
-8.16
-23.90
-42.15
-61.51
-79.84
-94.71
-104.05
-106.62
-102.37
-92.38
-78.45
-62.43
-45.82
-29.63
-14.43
-0.64
11.36
21.17
28.49
33.31
36.00
37.17
37.43
37.08
36.16
34.59
32.34
29.52
26.56
24.16
22.91
22.91
23.61
24.00
22.97
19.72
13.54
4.59
-6.09
-17.02
-27.09
-35.95
-44.08
-52.40
-61.94
-74.54
-91.07
-110.72
-131.06
-149.00
-161.59
-166.66
-163.19
-151.46
-134.65
-115.86
-96.57
-76.34
-54.28
-30.09
-4.89
18.81
37.52
45.81
40.34
21.94
-4.51
-32.84
-57.22
-73.99
-82.22
-70.25
-35.41
13.25
60.20
94.45
113.62
122.18
125.93
129.60
135.77
142.32
145.48
141.73
129.09
106.16
75.51
41.76
11.22
-9.99
-19.65
-18.54
-8.62
12.44
40.78
72.44
103.82
132.42
156.26
172.60
179.11
176.18
167.05
155.68
147.52
144.01
144.62
147.79
150.77
149.87
143.63
133.47
122.33
115.33
113.46
115.56
119.57
122.07
117.60
102.67
76.87
45.09
15.13
-11.27
-35.13
-58.32
-84.39
-119.52
-167.47
-227.85
-296.69
-365.32
-431.92
-497.32
-562.71
-603.92
-605.86
-570.36
-514.44
-482.66
-472.62
-474.07
-479.10
-469.21
-440.25
-399.08
-355.76
-318.04
-288.27
-260.47
-232.05
-201.56
-168.09
-133.76
-103.06
-78.63
-59.59
-42.03
-18.75
11.32
46.19
83.01
117.53
145.43
164.66
176.11
182.86
190.34
200.35
212.69
226.14
237.78
243.96
241.90
230.75
212.02
189.94
167.95
148.75
133.68
122.04
111.75
100.65
87.55
72.84
58.59
47.15
40.60
40.34
46.47
58.11
73.72
91.68
110.69
130.16
150.12
171.06
193.79
219.23
248.12
280.33
314.28
346.60
372.58
387.56
388.58
375.51
351.22
320.40
287.95
257.49
230.78
208.09
188.98
172.90
159.44
148.10
138.17
128.69
118.80
107.99
96.22
83.87
71.42
59.30
47.75
36.93
26.99
18.16
10.74
4.95
0.88
-1.64
-2.91
-3.29
-3.08
-2.53
-1.88
-1.32
-0.98
-0.84
-0.68
-0.18
0.94
2.73
4.92
6.97
8.30
8.47
7.30
4.87
1.40
-2.84
-7.61
-12.64
-17.61
-22.19
-26.11
-29.23
-31.65
-33.66
-35.57
-37.70
-40.12
-42.73
-45.34
-47.81
-50.20
-52.74
-55.67
-59.12
-63.00
-66.99
-70.72
-73.91
-76.48
-78.48
-79.92
-80.71
-80.51
-78.95
-75.69
-70.64
-63.90
-55.75
-46.58
-36.72
-26.48
-16.14
-6.16
2.88
10.29
15.45
18.03
18.18
16.45
13.57
10.33
7.22
4.45
1.98
-0.27
-2.42
-4.52
-6.65
-9.00
-11.71
-14.93
-18.64
-22.74
-27.06
-31.50
-36.08
-40.90
-46.06
-51.57
-57.37
-63.28
-69.15
-74.89
-80.50
-86.07
-91.62
-97.07
-102.04
-105.83
-107.46
-106.02
-100.97
-92.41
-81.08
-68.18
-55.01
-42.55
-31.36
-21.62
-13.31
-6.44
-1.13
2.44
4.19
4.20
2.82
0.48
-2.34
-5.20
-7.82
-9.97
-11.53
-12.43
-12.70
-12.48
-12.01
-11.58
-11.46
-11.75
-12.47
-13.62
-15.30
-17.78
-21.38
-26.29
-32.52
-39.72
-47.34
-54.69
-61.07
-65.69
-67.84
-66.84
-62.23
-54.03
-42.76
-29.40
-15.13
-1.06
12.01
23.67
33.80
42.40
49.43
54.68
57.91
58.91
57.66
54.42
49.73
44.33
38.97
34.30
30.73
28.36
26.98
26.17
25.42
24.19
22.14
19.09
15.09
10.31
5.03
-0.49
-6.09
-11.79
-17.89
-24.92
-33.38
-43.43
-54.55
-65.39
-74.01
-78.39
-77.09
-69.81
-57.49
-41.95
-25.35
-9.47
4.56
16.30
25.73
32.96
38.03
40.90
41.64
40.42
37.63
33.69
28.96
23.68
17.85
11.44
4.44
-3.08
-10.88
-18.42
-25.22
-31.09
-36.17
-40.93
-45.89
-51.54
-58.17
-65.88
-74.48
-83.91
-94.34
-106.15
-119.48
-133.80
-147.70
-159.14
-166.02
-166.51
-160.25
-148.68
-134.61
-121.12
-110.44
-103.41
-99.52
-97.39
-94.24
-88.07
-78.63
-67.37
-56.51
-47.89
-42.52
-40.58
-41.57
-41.86
-38.40
-30.09
-18.01
-3.92
11.13
27.09
44.32
63.09
87.65
120.61
161.36
206.06
250.34
291.54
329.11
363.65
395.99
432.25
476.27
527.23
579.73
627.13
664.77
690.70
704.81
672.90
577.80
426.99
250.54
81.11
-62.20
-174.57
-259.26
-322.10
-368.77
-398.02
-409.28
-405.24
-392.14
-376.83
-363.83
-354.78
-349.44
-347.44
-342.70
-331.04
-312.12
-289.36
-267.40
-249.43
-236.58
-228.55
-224.44
-219.96
-211.91
-199.39
-183.85
-167.45
-151.49
-135.90
-119.35
-103.22
-86.22
-67.18
-45.82
-22.91
0.28
22.56
42.95
60.76
75.57
88.40
100.63
113.23
126.20
138.52
148.54
154.68
156.01
152.62
145.98
138.83
133.65
131.71
132.65
134.93
136.73
136.61
133.86
128.60
123.06
119.19
117.61
117.43
116.69
113.47
106.55
95.38
80.07
64.00
50.66
42.31
39.74
42.67
50.62
63.40
80.79
102.20
130.33
167.19
212.43
263.46
316.20
366.78
412.69
452.72
463.40
429.51
349.48
238.33
120.01
14.39
-69.11
-129.97
-172.54
-202.52
-221.27
-226.31
-220.23
-207.14
-192.05
-179.50
-172.24
-171.12
-175.42
-180.66
-182.39
-178.39
-170.31
-160.80
-152.87
-148.68
-149.32
-154.88
-162.97
-170.87
-176.88
-179.96
-179.59
-175.43
-167.01
-154.06
-136.94
-115.91
-91.90
-66.71
-42.28
-20.23
-1.70
12.86
23.63
31.08
36.20
39.93
42.84
45.22
47.08
48.24
48.52
47.89
46.61
45.15
44.15
44.10
45.20
47.16
49.19
50.23
49.37
46.24
41.06
34.56
27.56
20.66
13.97
7.09
-0.71
-10.21
-22.01
-36.24
-52.33
-68.85
-83.55
-93.80
-97.25
-92.58
-79.95
-61.04
-38.42
-14.80
7.69
27.84
45.18
59.74
71.62
80.94
87.75
92.14
94.26
94.27
92.32
88.53
83.05
76.12
68.16
59.78
51.70
44.63
39.09
35.19
32.53
30.23
27.19
22.51
15.83
7.57
-1.34
-9.80
-17.08
-23.19
-28.83
-35.20
-43.44
-54.17
-67.14
-81.03
-93.56
-101.93
-103.57
-96.85
-81.78
-60.12
-35.10
-10.44
10.69
26.46
36.50
41.60
43.18
42.62
41.00
38.93
36.72
34.37
31.86
28.98
25.50
21.33
16.72
12.28
8.85
7.27
7.92
10.57
14.18
17.09
17.64
14.74
8.21
-1.45
-13.28
-26.80
-40.43
-52.53
-62.19
-69.96
-77.21
-85.02
-93.45
-101.29
-107.09
-109.26
-106.87
-100.00
-89.67
-77.44
-64.97
-55.02
-47.51
-42.20
-38.53
-35.85
-33.56
-31.09
-27.90
-23.59
-18.04
-11.40
-4.42
2.14
7.68
12.09
15.78
19.65
25.12
33.54
45.80
60.59
75.40
87.20
93.81
94.68
90.71
83.48
74.41
64.43
54.09
44.04
34.98
27.54
22.03
18.30
16.07
15.80
17.17
20.19
25.04
31.62
39.28
46.87
53.02
56.84
57.96
56.60
53.57
49.87
46.45
43.99
42.95
42.43
42.04
41.33
39.68
36.77
32.53
27.23
21.46
15.86
10.92
6.90
3.59
0.37
-3.33
-7.89
-13.30
-19.20
-25.07
-30.46
-35.11
-39.14
-42.97
-47.12
-52.08
-58.15
-65.32
-73.11
-80.45
-85.72
-87.08
-83.02
-72.81
-56.90
-36.90
-15.12
6.04
24.78
40.20
52.24
61.25
67.66
71.66
73.19
72.17
68.63
62.89
55.50
47.12
38.32
29.54
21.14
13.39
6.57
0.83
-3.86
-7.83
-11.60
-15.75
-20.66
-26.39
-32.66
-39.03
-45.18
-51.02
-56.82
-63.10
-70.40
-79.02
-88.69
-98.46
-106.73
-111.54
-111.10
-104.35
-91.35
-73.35
-52.39
-30.80
-10.55
7.07
21.57
33.11
42.20
49.41
55.17
59.62
62.71
64.24
64.01
62.01
58.45
53.81
48.70
43.77
39.50
36.12
33.55
31.49
29.49
27.14
24.13
20.31
15.73
10.53
4.93
-0.88
-6.90
-13.46
-21.21
-30.87
-42.85
-56.74
-71.04
-83.37
-91.05
-91.95
-85.29
-71.85
-53.70
-33.52
-13.76
3.86
18.52
30.09
38.80
45.04
49.25
51.93
53.61
54.76
55.67
56.29
56.33
55.39
53.28
50.19
46.61
43.15
40.25
37.92
35.76
33.03
29.00
23.23
15.77
7.15
-1.84
-10.43
-18.22
-25.28
-32.16
-39.65
-48.53
-59.22
-71.50
-84.40
-96.23
-104.89
-108.38
-105.45
-95.97
-81.03
-62.66
-43.13
-24.40
-7.67
6.62
18.55
28.38
36.33
42.48
46.89
49.67
51.01
51.19
50.41
48.78
46.33
43.04
39.00
34.49
29.96
25.98
23.00
21.19
20.28
19.59
18.25
15.41
10.56
3.67
-4.82
-14.14
-23.56
-32.57
-41.16
-49.78
-59.10
-69.66
-81.36
-93.28
-103.68
-110.49
-111.92
-107.05
-96.12
-80.41
-61.73
-41.95
-22.56
-4.58
11.33
24.82
35.66
43.83
49.47
52.90
54.55
54.84
54.10
52.52
50.15
46.97
43.05
38.63
34.09
29.90
26.41
23.68
21.45
19.16
16.26
12.32
7.26
1.35
-4.96
-11.21
-17.08
-22.59
-28.02
-33.91
-40.87
-49.32
-59.22
-69.84
-79.76
-87.10
-89.97
-87.09
-78.17
-64.02
-46.29
-26.93
-7.76
9.94
25.40
38.27
48.44
55.93
60.89
63.59
64.43
63.84
62.20
59.77
56.74
53.19
49.21
44.91
40.47
36.10
32.05
28.49
25.43
22.60
19.52
15.71
10.79
4.75
-2.10
-9.25
-16.20
-22.75
-29.04
-35.56
-42.99
-51.89
-62.45
-74.17
-85.79
-95.42
-100.95
-100.63
-93.64
-80.40
-62.45
-41.97
-21.18
-1.80
15.26
29.67
41.56
51.10
58.41
63.56
66.72
68.21
68.44
67.83
66.57
64.64
61.82
57.95
53.10
47.70
42.40
37.79
34.18
31.43
28.96
26.04
22.02
16.56
9.70
1.81
-6.55
-14.83
-22.67
-30.02
-37.22
-44.88
-53.70
-64.14
-75.99
-88.27
-99.17
-106.53
-108.39
-103.61
-92.25
-75.55
-55.55
-34.48
-14.23
4.05
19.87
33.24
44.31
53.20
59.93
64.47
66.95
67.59
66.75
64.80
62.02
58.55
54.47
49.90
45.07
40.34
36.14
32.78
30.32
28.47
26.65
24.14
20.32
14.94
8.16
0.49
-7.45
-15.19
-22.54
-29.65
-36.89
-44.73
-53.58
-63.62
-74.62
-85.73
-95.49
-102.04
-103.57
-98.89
-87.88
-71.53
-51.62
-30.22
-9.16
10.30
27.39
41.74
53.16
61.64
67.34
70.63
72.05
72.15
71.32
69.74
67.32
63.95
59.59
54.38
48.68
42.94
37.59
32.82
28.58
24.52
20.14
15.01
8.97
2.10
-5.20
-12.50
-19.47
-26.08
-32.64
-39.68
-47.81
-57.44
-68.52
-80.35
-91.54
-100.11
-103.96
-101.49
-92.11
-76.53
-56.60
-34.75
-13.28
6.20
22.89
36.72
47.90
56.70
63.27
67.76
70.38
71.46
71.35
70.30
68.42
65.61
61.82
57.17
51.99
46.82
42.23
38.54
35.72
33.31
30.57
26.76
21.41
14.52
6.59
-1.63
-9.48
-16.61
-23.18
-29.74
-37.03
-45.70
-56.02
-67.65
-79.52
-89.91
-96.81
-98.34
-93.33
-81.71
-64.55
-43.77
-21.59
0.02
19.67
36.65
50.78
62.16
70.97
77.40
81.62
83.77
84.08
82.75
80.05
76.20
71.39
65.78
59.58
53.13
46.90
41.38
36.89
33.36
30.38
27.28
23.41
18.43
12.37
5.59
-1.39
-8.12
-14.44
-20.45
-26.54
-33.28
-41.26
-50.86
-61.95
-73.67
-84.36
-91.88
-94.20
-90.09
-79.52
-63.75
-44.86
-25.13
-6.36
10.39
24.73
36.68
46.30
53.58
58.43
60.85
61.03
59.33
56.24
52.15
47.37
42.06
36.37
30.55
24.99
20.22
16.66
14.50
13.51
13.06
12.30
10.42
6.94
1.81
-4.64
-11.85
-19.28
-26.58
-33.73
-40.96
-48.70
-57.40
-67.34
-78.26
-89.29
-98.89
-105.09
-106.09
-100.76
-89.11
-72.31
-52.36
-31.44
-11.36
6.72
22.34
35.39
45.86
53.74
59.03
61.89
62.74
62.14
60.64
58.57
56.05
53.01
49.42
45.42
41.30
37.47
34.23
31.68
29.64
27.67
25.25
21.90
17.36
11.73
5.39
-1.14
-7.48
-13.50
-19.50
-26.07
-33.81
-43.08
-53.67
-64.67
-74.54
-81.43
-83.66
-80.17
-70.88
-56.73
-39.41
-20.94
-3.09
12.84
26.21
36.90
45.00
50.75
54.32
55.90
55.67
53.91
50.92
47.03
42.56
37.80
33.01
28.45
24.32
20.77
17.83
15.31
12.88
10.09
6.53
1.99
-3.46
-9.51
-15.73
-21.78
-27.60
-33.48
-40.04
-47.97
-57.71
-68.98
-80.63
-90.72
-96.98
-97.49
-91.36
-78.99
-61.96
-42.49
-22.82
-4.64
11.07
23.99
34.23
42.12
47.98
52.14
54.83
56.19
56.31
55.23
52.98
49.69
45.64
41.23
36.92
33.15
30.21
28.09
26.52
25.01
23.00
20.06
15.99
10.87
5.01
-1.22
-7.55
-13.92
-20.62
-28.17
-37.20
-48.06
-60.48
-73.35
-84.76
-92.50
-94.64
-90.23
-79.54
-64.04
-45.80
-26.88
-8.88
7.30
21.31
33.09
42.72
50.27
55.84
59.62
61.85
62.73
62.40
60.91
58.25
54.46
49.73
44.45
39.17
34.47
30.70
27.89
25.61
23.20
19.94
15.41
9.58
2.82
-4.33
-11.39
-18.15
-24.77
-31.73
-39.67
-49.04
-59.90
-71.55
-82.59
-91.06
-94.99
-92.99
-84.73
-71.05
-53.71
-34.81
-16.19
0.96
16.12
29.20
40.30
49.44
56.57
61.64
64.75
66.12
66.10
64.93
62.72
59.46
55.10
49.72
43.65
37.42
31.62
26.67
22.66
19.23
15.76
11.51
5.92
-1.13
-9.35
-18.20
-27.08
-35.64
-43.82
-51.85
-60.19
-69.34
-79.62
-91.03
-103.13
-114.92
-124.82
-130.94
-131.49
-125.52
-113.13
-95.39
-74.08
-51.15
-28.33
-6.88
12.50
29.44
43.36
53.76
60.59
64.34
65.91
66.27
66.15
65.85
65.35
63.66
59.87
53.80
46.27
38.70
32.47
28.46
26.81
26.95
26.80
24.02
17.08
5.82
-8.54
-23.87
-37.50
-46.86
-45.80
-31.45
-6.17
22.84
47.40
61.83
63.75
53.56
33.87
9.11
-16.54
-39.12
-55.63
-64.66
-66.69
-63.62
-57.72
-52.08
-46.49
-41.17
-36.42
-32.34
-28.55
-24.34
-19.04
-12.27
-4.03
5.39
14.61
22.17
27.22
29.79
30.68
31.02
31.57
32.67
34.24
35.33
34.87
32.26
27.56
21.48
14.88
8.44
2.39
-3.45
-9.81
-17.40
-26.53
-36.83
-47.27
-56.35
-62.39
-63.90
-59.90
-50.38
-36.21
-18.98
-0.51
17.62
34.42
49.50
62.86
74.54
84.35
91.86
96.65
98.65
98.21
95.98
92.66
88.67
84.11
78.87
72.92
66.47
60.00
53.99
48.70
43.98
39.27
33.88
27.28
19.33
10.36
1.01
-8.07
-16.49
-24.24
-31.74
-39.59
-48.43
-58.60
-70.01
-81.95
-93.11
-101.80
-106.23
-105.05
-97.75
-84.85
-67.80
-48.54
-29.00
-10.56
6.03
20.60
33.30
44.26
53.45
60.77
66.17
69.77
71.90
72.94
73.18
72.74
71.66
69.99
68.00
66.15
64.99
64.89
65.86
67.48
69.12
70.10
70.02
68.87
66.96
64.67
62.32
59.95
57.40
54.31
50.35
45.22
38.77
31.08
22.55
14.08
6.96
2.63
2.10
5.47
11.75
18.99
25.01
28.03
27.19
22.66
15.25
6.01
-4.20
-14.79
-25.42
-35.83
-45.73
-54.78
-62.69
-69.29
-74.58
-78.68
-81.77
-83.97
-85.30
-85.69
-85.08
-83.60
-81.58
-79.58
-78.19
-77.94
-79.07
-81.47
-84.71
-88.24
-91.58
-94.60
-97.59
-101.17
-106.03
-112.51
-120.27
-128.16
-134.39
-136.97
-134.38
-126.02
-112.48
-95.31
-76.57
-58.21
-41.69
-27.72
-16.42
-7.56
-0.84
3.89
6.62
7.27
5.90
2.71
-1.89
-7.41
-13.41
-19.55
-25.52
-31.08
-35.87
-39.53
-41.85
-42.86
-42.86
-42.34
-41.63
-40.81
-39.65
-37.94
-35.68
-33.34
-31.63
-31.17
-32.03
-33.62
-34.88
-34.69
-32.29
-27.44
-20.38
-11.43
-0.76
11.66
25.96
42.05
59.42
77.10
93.85
108.52
120.34
129.16
135.41
139.78
142.86
144.90
145.64
144.64
141.56
136.53
130.17
123.37
116.85
110.89
105.30
99.54
93.05
85.46
76.75
67.13
57.01
46.75
36.59
26.51
16.28
5.47
-6.36
-19.47
-33.87
-49.15
-64.58
-79.03
-91.16
-99.55
-102.97
-100.71
-92.87
-80.31
-64.39
-46.55
-27.84
-8.94
9.75
27.74
44.20
58.07
68.42
74.85
77.69
77.93
76.81
75.39
74.24
73.36
72.25
70.28
66.92
61.98
55.57
48.00
39.73
31.14
22.62
14.47
7.05
0.87
-3.65
-6.50
-8.43
-10.84
-15.54
-24.19
-37.84
-56.41
-78.33
-100.81
-120.61
-134.89
-141.88
-141.29
-134.14
-122.31
-107.87
-92.16
-75.85
-59.27
-42.61
-26.06
-9.54
7.36
24.64
40.99
54.57
64.03
69.30
71.48
72.00
71.95
71.77
73.02
74.71
75.89
75.99
74.86
72.56
69.30
65.33
60.93
54.64
45.87
34.75
21.79
7.63
-7.12
-21.95
-36.32
-49.53
-60.64
-68.46
-71.65
-69.39
-61.79
-50.03
-35.98
-21.65
-8.58
2.39
11.13
18.00
23.39
27.52
30.40
31.91
31.94
30.52
27.84
24.31
20.42
16.57
13.03
9.83
6.87
3.99
1.03
-2.10
-5.45
-9.00
-12.77
-16.73
-20.83
-25.04
-29.45
-34.35
-40.17
-47.32
-55.95
-65.67
-75.42
-83.55
-88.17
-87.66
-81.24
-69.23
-52.99
-34.51
-15.88
1.25
15.97
28.01
37.58
45.09
50.92
55.34
58.51
60.45
61.14
60.49
58.45
55.13
50.82
46.03
41.27
36.97
33.30
30.13
27.13
23.90
20.12
15.61
10.43
4.77
-1.14
-7.13
-13.22
-19.61
-26.67
-34.83
-44.35
-55.00
-65.95
-75.72
-82.44
-84.36
-80.43
-70.70
-56.32
-39.25
-21.59
-5.05
9.44
21.66
31.85
40.35
47.39
53.00
57.13
59.74
60.88
60.73
59.43
57.19
54.14
50.47
46.37
42.13
38.06
34.46
31.52
29.17
27.18
25.11
22.45
18.79
13.91
7.90
1.07
-6.11
-13.14
-19.67
-25.63
-31.24
-36.99
-43.46
-51.21
-60.50
-71.15
-82.38
-92.75
-100.43
-103.60
-101.01
-92.39
-78.61
-61.44
-42.99
-25.10
-9.00
4.84
16.49
26.21
34.19
40.51
45.18
48.27
49.97
50.53
50.20
49.15
47.46
45.21
42.51
39.60
36.78
34.29
32.29
30.70
29.33
27.83
25.84
23.03
19.18
14.26
8.40
1.93
-4.77
-11.34
-17.66
-23.83
-30.14
-36.96
-44.62
-53.21
-62.60
-72.22
-81.04
-87.63
-90.44
-88.24
-80.57
-68.01
-52.02
-34.56
-17.44
-1.90
11.54
22.91
32.41
40.19
46.26
50.53
52.96
53.72
53.14
51.62
49.57
47.26
44.89
42.52
40.20
37.98
35.94
34.19
32.71
31.41
30.01
28.20
25.67
22.23
17.84
12.58
6.59
0.09
-6.71
-13.57
-20.30
-26.76
-33.02
-39.29
-46.05
-53.80
-62.87
-73.09
-83.60
-92.87
-99.02
-100.34
-95.83
-85.53
-70.56
-52.73
-34.00
-16.05
0.05
13.84
25.29
34.61
42.07
47.91
52.40
55.75
58.14
59.59
60.04
59.38
57.62
54.98
51.94
49.10
46.90
45.45
44.51
43.57
42.13
39.90
36.86
33.20
29.17
24.88
20.26
15.14
9.39
2.94
-4.15
-11.69
-19.39
-26.92
-34.00
-40.53
-46.67
-52.89
-59.81
-68.06
-77.88
-88.78
-99.43
-107.92
-112.28
-111.01
-103.70
-91.07
-74.92
-57.39
-40.21
-24.39
-10.29
2.12
12.99
22.34
30.11
35.94
39.78
42.22
44.15
46.39
49.29
52.73
56.14
58.86
59.93
58.90
56.41
53.42
50.74
48.55
46.47
43.64
39.04
31.18
19.27
4.13
-12.60
-28.84
-42.47
-51.74
-55.82
-51.35
-38.62
-22.57
-10.31
-7.42
-15.01
-30.16
-48.10
-64.45
-76.59
-84.06
-89.74
-92.73
-91.59
-85.32
-73.90
-57.92
-38.92
-19.26
-1.71
11.87
21.69
28.59
32.58
33.05
30.54
27.67
25.29
22.46
17.15
8.97
-1.53
-13.17
-24.04
-30.86
-31.63
-26.75
-18.57
-9.82
-1.76
5.78
14.08
25.59
44.85
75.28
117.81
170.30
227.90
283.88
330.67
361.48
360.96
322.96
254.90
176.24
106.71
56.26
23.92
4.14
-12.42
-31.74
-54.99
-82.70
-114.76
-150.70
-186.35
-215.41
-231.38
-230.75
-214.10
-179.35
-133.37
-87.77
-52.39
-30.57
-20.23
-17.52
-19.83
-25.54
-32.69
-40.01
-45.75
-48.55
-47.93
-44.53
-39.47
-33.89
-28.35
-23.02
-19.38
-18.14
-19.68
-23.83
-29.98
-37.17
-44.48
-51.18
-56.80
-61.41
-64.56
-65.18
-62.05
-54.58
-43.14
-28.89
-13.27
2.57
18.03
32.34
45.04
55.82
64.39
70.47
73.89
74.61
72.70
68.29
61.68
53.41
44.09
34.83
26.83
21.11
18.06
17.31
17.88
18.56
18.38
16.72
14.22
12.00
11.10
11.78
13.51
15.25
16.15
15.87
14.46
13.47
14.96
21.03
33.09
51.74
76.94
108.23
144.64
177.84
198.69
200.12
181.13
146.86
105.16
62.92
24.74
-7.11
-32.19
-50.20
-61.23
-65.77
-65.34
-62.57
-60.70
-62.63
-69.58
-81.47
-95.24
-106.04
-108.87
-100.67
-81.62
-54.98
-25.82
0.81
21.04
33.37
38.34
37.93
34.54
30.46
27.51
25.56
23.73
21.62
18.63
13.92
7.04
-1.64
-10.91
-19.39
-26.25
-31.49
-35.95
-40.90
-47.31
-55.28
-64.01
-71.72
-77.44
-80.31
-80.27
-77.91
-74.40
-70.80
-67.56
-64.31
-59.46
-51.12
-38.13
-20.81
-0.89
18.48
34.01
43.57
44.43
36.63
23.13
8.27
-4.29
-12.28
-15.04
-11.90
-1.57
17.21
44.63
79.67
118.82
157.15
190.54
215.94
231.80
237.81
234.35
222.56
204.17
181.37
153.10
121.74
90.38
61.57
36.60
15.22
-3.74
-21.61
-39.36
-57.24
-74.25
-89.14
-100.80
-108.75
-113.43
-116.03
-118.11
-121.06
-125.97
-132.91
-141.12
-149.06
-154.87
-156.90
-154.18
-146.37
-133.48
-116.18
-95.48
-72.20
-46.92
-20.12
7.45
34.21
58.23
77.70
92.56
101.15
102.15
95.85
84.28
70.22
55.79
40.18
24.58
10.49
-1.06
-9.62
-15.72
-21.23
-25.51
-29.67
-34.63
-40.15
-45.57
-50.24
-53.40
-54.53
-53.59
-50.84
-47.27
-43.61
-39.97
-36.35
-32.63
-28.28
-22.64
-15.24
-5.95
4.60
15.76
27.36
39.43
52.07
65.29
78.73
91.55
102.57
110.54
114.83
115.72
114.05
110.81
106.78
102.31
97.31
91.44
84.22
75.44
65.23
53.98
42.24
30.55
19.35
8.92
-0.69
-9.67
-18.38
-27.08
-35.83
-44.30
-51.76
-57.24
-59.75
-58.62
-53.68
-45.35
-34.59
-22.73
-11.24
-1.41
5.70
9.45
9.49
5.82
-1.23
-10.84
-21.82
-32.77
-42.36
-49.81
-55.11
-58.98
-62.59
-67.06
-73.08
-80.73
-89.56
-98.72
-107.29
-114.44
-119.61
-122.68
-123.97
-124.23
-124.31
-124.88
-126.06
-127.32
-127.60
-125.65
-120.49
-111.65
-99.26
-83.98
-66.72
-48.48
-30.23
-12.82
3.12
17.26
29.69
40.79
51.04
60.77
70.04
78.72
86.66
93.81
100.19
105.69
110.03
112.71
113.29
111.66
108.17
103.47
98.18
92.62
86.72
80.18
72.77
64.61
56.24
48.52
42.43
38.77
37.90
39.73
43.77
49.43
56.29
64.10
72.63
81.40
89.54
95.92
99.58
100.20
98.32
95.13
91.92
89.44
87.62
85.64
82.34
76.92
69.26
60.09
50.80
42.92
37.66
35.38
35.24
35.12
31.94
22.37
4.02
-23.59
-58.36
-95.70
-129.58
-154.09
-165.19
-161.90
-146.45
-123.36
-97.79
-73.98
-54.25
-38.92
-27.06
-17.39
-9.03
-1.57
5.08
11.10
16.83
22.57
28.20
33.04
35.95
35.83
32.05
24.87
15.48
5.68
-2.61
-8.10
-10.49
-10.58
-9.87
-9.81
-11.21
-13.99
-17.41
-20.62
-23.23
-25.48
-27.97
-31.20
-35.12
-39.15
-42.56
-45.02
-46.96
-49.52
-54.05
-61.59
-72.38
-85.78
-100.48
-114.95
-127.81
-138.07
-145.26
-149.39
-150.84
-150.26
-148.40
-145.90
-143.19
-140.36
-137.22
-133.40
-128.51
-122.35
-115.01
-106.83
-98.26
-89.60
-80.75
-71.13
-59.77
-45.63
-28.04
-6.99
16.76
41.81
66.53
89.36
109.06
124.86
136.42
143.74
147.14
147.07
144.06
138.62
131.19
122.24
112.23
101.63
90.83
80.11
69.50
58.93
48.33
37.73
27.34
17.39
7.93
-1.29
-10.80
-21.19
-32.74
-45.15
-57.53
-68.69
-77.49
-83.24
-85.82
-85.63
-83.25
-79.29
-74.25
-68.55
-62.63
-56.97
-52.00
-47.98
-44.89
-42.61
-41.02
-40.14
-40.12
-41.15
-43.22
-45.95
-48.56
-50.22
-50.38
-49.14
-47.16
-45.53
-45.41
-47.68
-52.73
-60.31
-69.44
-78.54
-85.61
-88.24
-84.34
-72.94
-54.93
-33.06
-11.09
7.40
20.27
27.39
30.84
33.88
39.58
49.47
63.13
78.80
94.13
107.01
116.11
121.67
125.27
129.23
135.48
144.90
157.24
171.13
184.46
192.51
191.00
178.56
158.36
136.28
117.28
103.60
94.77
88.79
83.30
76.55
67.58
56.62
45.20
34.52
26.53
22.99
24.47
29.83
36.94
43.35
47.27
46.77
40.34
27.90
10.47
-9.92
-30.40
-47.42
-59.76
-65.87
-65.93
-62.05
-56.79
-52.17
-49.21
-47.93
-47.77
-48.28
-49.38
-49.72
-49.68
-49.80
-50.55
-52.12
-54.40
-57.08
-59.77
-61.80
-62.67
-62.27
-60.50
-57.33
-53.03
-48.07
-43.00
-38.28
-33.91
-29.66
-25.34
-20.66
-15.50
-10.00
-4.55
0.42
4.59
8.02
10.97
13.69
16.45
19.40
22.49
25.57
28.46
30.96
32.94
34.33
35.10
35.52
36.17
37.87
41.38
47.10
54.79
63.52
71.96
78.70
82.69
83.35
80.61
74.66
65.82
54.35
40.47
24.40
6.39
-13.18
-33.75
-54.57
-74.78
-93.56
-110.37
-125.03
-137.70
-148.65
-157.99
-165.53
-170.69
-172.71
-170.73
-163.97
-151.72
-133.45
-108.86
-78.15
-42.11
-2.21
39.55
81.01
120.08
155.08
184.86
208.70
226.24
237.37
242.15
240.80
233.73
221.54
204.99
184.93
162.23
137.73
112.22
86.55
61.63
38.46
17.95
0.70
-13.23
-24.42
-34.01
-43.33
-53.46
-64.74
-76.70
-88.28
-98.34
-106.26
-112.13
-116.48
-119.91
-122.61
-124.23
-124.22
-122.19
-118.15
-112.34
-104.80
-95.01
-81.99
-64.84
-43.61
-19.71
4.29
25.54
42.02
53.16
59.82
63.57
65.74
66.85
66.65
64.62
60.49
54.37
46.36
36.15
22.82
5.33
-16.63
-41.93
-67.87
-90.81
-107.41
-115.63
-115.27
-107.69
-95.05
-79.52
-62.83
-46.25
-30.87
-17.60
-7.19
-0.00
4.12
5.79
5.81
4.79
2.98
0.16
-4.12
-10.39
-18.90
-29.48
-41.38
-53.26
-63.45
-70.49
-73.67
-73.41
-71.19
-68.95
-68.25
-69.49
-71.73
-73.06
-71.31
-64.88
-53.25
-36.94
-17.27
4.21
25.94
46.50
64.60
78.99
88.67
93.09
92.42
87.52
79.68
70.20
60.10
49.93
40.01
30.61
22.10
14.95
9.44
5.57
3.00
1.18
-0.44
-2.35
-4.92
-8.41
-12.78
-17.39
-20.94
-21.72
-18.25
-9.97
2.44
17.35
32.80
47.29
60.06
70.88
79.56
85.50
87.82
85.75
79.23
69.14
57.04
44.45
32.29
20.56
8.57
-4.38
-18.55
-33.38
-47.73
-60.32
-70.30
-77.65
-83.09
-87.80
-92.83
-98.74
-105.50
-112.57
-119.16
-124.44
-127.52
-127.41
-123.09
-113.67
-98.70
-78.52
-54.23
-27.58
-0.53
25.16
48.20
67.78
83.49
95.21
103.05
107.46
109.08
108.68
106.90
104.13
100.52
96.13
91.11
85.75
80.46
75.55
71.21
67.34
63.47
58.66
51.41
40.08
23.53
2.12
-21.81
-44.28
-60.85
-68.22
-65.15
-52.63
-33.04
-9.24
16.01
39.95
59.56
71.76
74.16
66.14
49.45
27.88
6.01
-12.35
-25.10
-31.96
-33.69
-31.36
-25.69
-17.16
-6.26
6.28
19.46
32.22
43.83
53.86
61.98
67.60
69.80
67.61
60.66
49.74
37.04
25.75
19.18
19.70
28.14
43.62
64.03
86.72
109.08
128.93
144.52
154.52
158.07
154.88
145.43
131.02
113.56
95.19
77.89
63.09
51.51
43.16
37.52
33.68
30.47
26.55
20.65
11.77
-0.46
-15.57
-32.30
-48.94
-63.99
-76.75
-87.63
-98.04
-109.72
-123.96
-140.93
-159.39
-176.84
-190.11
-196.14
-192.62
-178.61
-154.73
-122.97
-86.24
-47.61
-9.55
26.50
60.15
91.71
121.57
149.64
175.25
197.31
214.81
227.26
234.78
238.03
237.74
234.46
228.36
219.28
206.84
190.66
170.55
146.62
119.31
89.37
57.69
25.34
-6.42
-35.98
-61.27
-79.97
-90.17
-91.10
-83.88
-71.55
-58.37
-48.56
-45.01
-48.61
-58.24
-71.56
-85.95
-99.42
-111.02
-120.80
-129.37
-137.35
-144.88
-151.46
-156.20
-158.13
-156.76
-152.26
-145.44
-137.53
-129.89
-123.79
-120.39
-120.65
-125.17
-133.93
-146.22
-160.86
-176.71
-193.24
-210.59
-229.14
-248.64
-267.41
-282.23
-289.17
-284.88
-267.86
-239.01
-201.19
-158.24
-113.88
-70.97
-31.30
4.29
35.70
63.37
88.06
110.64
131.84
152.02
171.04
188.24
202.62
213.07
218.70
219.16
214.87
207.00
197.22
187.17
178.02
170.12
163.04
155.92
147.86
138.35
127.51
116.18
105.76
98.01
94.57
96.47
103.80
115.59
130.09
145.32
159.73
172.48
183.55
193.34
202.25
210.34
217.27
222.44
225.24
225.25
222.25
216.19
207.08
194.99
179.98
162.17
141.71
118.89
94.16
68.14
41.60
15.33
-10.12
-34.60
-58.38
-82.14
-106.67
-132.65
-160.35
-189.41
-218.80
-246.83
-271.42
-290.49
-302.43
-306.51
-303.00
-293.08
-278.44
-260.80
-241.68
-222.28
-203.56
-186.33
-171.17
-158.36
-147.65
-138.40
-129.76
-120.97
-111.64
-101.81
-91.77
-81.85
-72.17
-62.49
-52.36
-41.34
-29.21
-16.14
-2.64
10.54
22.68
33.14
41.52
47.56
51.12
52.18
51.01
48.30
45.15
42.91
42.80
45.51
50.95
58.37
66.64
74.69
81.80
87.66
92.28
95.73
98.20
100.00
101.65
103.92
107.57
113.14
120.64
129.52
138.65
146.59
151.76
152.66
148.12
137.53
121.04
99.46
73.95
45.65
15.43
-16.25
-48.94
-81.76
-113.10
-140.57
-161.69
-174.52
-178.17
-172.86
-159.83
-140.89
-117.99
-92.99
-67.35
-42.22
-18.45
3.49
23.58
42.10
59.06
73.91
84.98
89.94
86.29
72.37
48.44
17.15
-17.05
-49.25
-75.49
-93.89
-102.89
-101.73
-91.30
-74.49
-55.21
-36.72
-21.30
-8.36
2.57
11.02
15.26
12.78
1.20
-20.16
-49.63
-83.25
-115.42
-140.49
-153.88
-153.61
-140.94
-120.02
-96.73
-76.95
-65.03
-62.66
-69.00
-81.19
-95.79
-109.92
-121.72
-130.19
-134.92
-135.76
-132.82
-126.70
-118.49
-109.62
-101.50
-95.05
-90.36
-86.64
-82.62
-77.02
-69.13
-58.98
-47.35
-35.37
-23.99
-13.43
-2.98
8.85
23.71
42.71
65.95
92.42
120.26
147.38
171.95
192.78
209.39
221.72
230.04
234.66
235.93
234.23
229.92
223.30
214.60
204.06
191.96
178.67
164.68
150.47
136.39
122.65
109.19
95.83
82.35
68.64
54.85
41.27
28.22
15.84
3.87
-8.37
-21.62
-36.31
-52.22
-68.33
-83.10
-94.97
-102.80
-106.26
-105.73
-102.10
-96.43
-89.61
-82.30
-74.95
-67.94
-61.58
-56.15
-51.81
-48.56
-46.16
-44.29
-42.59
-40.84
-39.03
-37.35
-36.02
-35.19
-34.76
-34.39
-33.60
-31.94
-29.24
-25.69
-21.83
-18.48
-16.49
-16.51
-18.75
-22.82
-27.77
-32.16
-34.47
-33.48
-28.61
-20.10
-8.96
3.40
15.52
26.20
34.74
40.92
44.85
46.87
47.29
46.37
44.17
40.63
35.66
29.30
21.80
13.58
5.19
-2.84
-10.11
-16.32
-21.24
-24.72
-26.76
-27.57
-27.48
-26.73
-25.26
-22.67
-18.38
-11.90
-3.13
7.78
20.68
35.62
52.88
72.59
94.21
116.46
137.43
155.23
168.42
176.26
178.44
174.71
164.81
148.56
126.43
99.79
70.86
42.28
16.47
-4.87
-20.92
-31.67
-37.59
-39.31
-37.42
-32.42
-24.78
-15.13
-4.39
6.25
15.52
22.24
25.65
25.47
21.92
15.64
7.56
-1.26
-9.72
-16.93
-22.30
-25.66
-27.19
-27.17
-25.75
-22.79
-17.90
-10.72
-1.16
10.47
23.57
37.41
51.34
64.75
77.01
87.28
94.42
97.03
93.66
83.17
65.08
39.85
8.96
-25.21
-59.71
-91.62
-118.50
-138.83
-152.15
-158.93
-160.18
-157.04
-150.37
-140.58
-127.64
-111.25
-91.16
-67.41
-40.45
-11.15
19.31
49.56
78.11
103.43
123.99
138.46
145.98
146.40
140.48
129.68
115.71
99.92
82.87
64.29
43.46
19.84
-6.28
-33.67
-60.42
-84.49
-104.22
-118.70
-127.72
-131.76
-131.78
-129.20
-125.53
-121.96
-118.80
-115.22
-109.56
-100.05
-85.72
-67.02
-45.66
-24.02
-4.19
12.54
25.66
35.06
40.56
41.94
39.11
32.57
23.53
13.64
4.54
-2.68
-7.53
-10.14
-10.87
-10.18
-8.50
-6.22
-3.73
-1.33
0.86
2.95
5.18
7.82
11.03
14.87
19.23
23.82
28.09
31.34
32.84
32.04
28.73
23.08
15.39
5.84
-5.50
-18.52
-32.76
-47.32
-61.07
-72.91
-82.01
-87.84
-90.07
-88.54
-83.40
-75.38
-65.97
-57.23
-50.97
-47.85
-46.78
-45.07
-39.50
-27.66
-8.99
15.00
41.15
65.70
85.36
98.23
104.18
104.66
101.93
98.20
94.80
91.91
88.78
84.18
77.08
66.93
53.68
37.66
19.56
0.68
-17.07
-31.50
-40.75
-44.10
-42.34
-37.50
-32.11
-28.30
-27.09
-28.62
-32.59
-38.67
-46.51
-55.49
-64.65
-72.84
-79.22
-83.18
-84.81
-84.64
-83.26
-80.92
-77.39
-72.29
-65.50
-57.46
-48.35
-38.32
-27.38
-15.47
-2.58
11.21
25.76
40.78
55.95
71.82
88.94
107.46
126.66
144.94
160.34
171.07
176.01
170.34
152.03
122.99
89.11
57.47
32.82
16.13
5.77
-0.64
-4.93
-7.23
-7.23
-4.97
-1.36
2.21
4.50
5.18
4.78
4.19
4.78
7.40
11.97
17.52
22.77
26.51
28.62
29.73
30.65
32.32
35.02
38.12
40.29
40.09
36.34
29.01
19.12
8.04
-2.94
-13.20
-23.00
-33.19
-44.60
-57.91
-72.27
-86.05
-97.74
-106.46
-112.42
-116.87
-121.55
-124.82
-128.91
-135.23
-144.10
-154.66
-164.40
-169.36
-165.25
-149.18
-121.53
-86.75
-51.06
-20.38
1.74
15.31
23.00
28.16
32.84
37.05
39.08
37.58
33.03
27.04
21.69
18.47
17.64
18.34
19.07
18.44
16.28
13.54
11.41
10.73
11.42
12.46
12.38
9.95
4.65
-2.90
-11.07
-18.02
-22.21
-22.77
-19.78
-14.10
-7.13
-0.32
5.23
9.25
11.85
13.46
14.54
15.40
16.15
16.85
17.69
17.64
16.59
14.75
12.49
10.22
8.19
6.44
4.81
3.08
1.14
-0.76
-2.33
-3.31
-3.70
-3.75
-3.96
-4.87
-6.87
-10.12
-14.24
-18.72
-23.01
-26.73
-29.80
-32.45
-35.12
-38.34
-42.59
-48.03
-54.62
-61.95
-69.22
-75.21
-78.47
-77.66
-71.91
-61.22
-46.41
-29.00
-10.68
7.07
23.33
37.65
49.85
59.81
67.39
72.48
75.17
75.79
74.92
73.12
70.91
68.56
66.15
63.64
60.94
58.00
54.84
51.58
48.38
45.36
42.51
39.67
36.51
32.68
27.89
22.09
15.42
8.23
0.94
-6.09
-12.57
-18.43
-23.74
-28.85
-34.21
-40.27
-47.28
-55.02
-62.67
-68.87
-71.96
-70.51
-63.74
-51.90
-36.22
-18.57
-0.95
15.00
28.31
38.58
45.81
50.23
52.12
51.92
50.27
47.97
45.87
44.62
44.42
45.04
45.96
46.66
46.81
46.40
45.61
44.66
43.58
42.16
40.01
36.72
32.04
25.94
18.70
10.70
2.44
-5.70
-13.48
-20.83
-27.90
-34.96
-42.33
-50.23
-58.61
-66.91
-74.08
-78.67
-79.24
-74.77
-65.03
-50.74
-33.41
-14.92
2.92
18.62
31.25
40.39
46.07
48.63
48.74
47.25
45.04
42.91
41.33
40.43
40.02
39.70
39.11
38.02
36.34
34.07
31.26
27.86
23.80
18.98
13.44
7.34
1.00
-5.19
-10.98
-16.32
-21.40
-26.54
-32.11
-38.43
-45.57
-53.36
-61.24
-68.28
-73.21
-74.67
-71.61
-63.68
-51.45
-36.35
-20.30
-5.14
7.82
18.01
25.49
30.67
33.96
35.65
35.93
35.01
33.24
31.04
28.89
27.05
25.62
24.47
23.33
21.92
20.02
17.48
14.27
10.40
5.95
1.04
-4.16
-9.47
-14.69
-19.71
-24.59
-29.55
-35.02
-41.44
-49.08
-57.74
-66.60
-74.27
-79.02
-79.29
-74.22
-63.96
-49.75
-33.54
-17.41
-2.99
8.89
18.18
25.28
30.72
34.80
37.62
39.21
39.73
39.52
39.08
38.88
39.11
39.68
40.19
40.11
38.96
36.49
32.73
27.99
22.65
17.06
11.32
5.33
-1.16
-8.42
-16.65
-25.85
-35.82
-46.02
-55.52
-63.03
-67.05
-66.31
-60.21
-49.07
-34.20
-17.45
-0.73
14.46
27.26
37.43
45.03
50.25
53.25
54.17
53.25
50.90
47.70
44.28
41.23
38.85
37.11
35.68
34.07
31.87
28.91
25.34
21.49
17.74
14.29
11.12
7.96
4.45
0.20
-5.14
-11.75
-19.50
-27.84
-35.63
-41.29
-43.16
-40.06
-31.71
-19.01
-3.73
11.93
26.06
37.42
45.65
51.01
54.08
55.38
55.28
54.01
51.85
49.17
46.47
44.14
42.26
40.55
38.40
35.18
30.55
24.61
17.88
11.05
4.70
-0.89
-5.78
-10.27
-14.67
-19.23
-24.03
-29.07
-34.23
-39.21
-43.45
-46.00
-45.77
-41.75
-33.48
-21.33
-6.46
9.40
24.51
37.54
47.78
55.18
60.01
62.66
63.44
62.66
60.68
58.01
55.25
52.94
51.36
50.49
49.98
49.39
48.40
46.94
45.23
43.65
42.54
42.10
42.32
43.10
44.27
45.66
47.03
48.10
48.51
47.87
45.82
42.08
36.50
29.14
20.30
10.60
0.92
-7.75
-14.55
-18.88
-20.57
-19.87
-17.32
-13.66
-9.68
-6.14
-3.72
-2.90
-3.92
-6.66
-10.78
-15.69
-20.88
-25.91
-30.63
-35.09
-39.50
-44.07
-48.87
-53.80
-58.55
-62.77
-66.14
-68.58
-70.22
-71.41
-72.60
-74.25
-76.75
-80.36
-85.14
-90.83
-96.88
-102.34
-106.08
-106.93
-104.01
-96.96
-86.07
-72.20
-56.63
-40.71
-25.71
-12.51
-1.65
6.73
12.76
16.74
19.11
20.26
20.61
20.51
20.29
20.21
20.46
21.11
22.13
23.38
24.68
25.87
26.81
27.45
27.83
28.09
28.36
28.77
29.39
30.15
30.91
31.40
31.30
30.31
28.34
25.70
23.15
21.91
23.26
28.13
36.71
48.27
61.29
74.01
84.82
92.65
97.04
98.01
95.80
90.79
83.47
74.45
64.54
54.61
45.43
37.50
30.94
25.53
20.91
16.73
12.85
9.32
6.30
3.81
1.66
-0.59
-3.45
-7.28
-12.12
-17.68
-23.49
-29.03
-33.99
-38.31
-42.19
-45.93
-49.78
-53.72
-57.40
-60.12
-61.02
-59.28
-54.36
-46.21
-35.25
-22.32
-8.54
4.97
17.22
27.50
35.49
41.28
45.30
48.12
50.33
52.28
54.06
55.56
56.65
57.39
58.07
59.08
60.68
62.77
64.83
65.99
65.27
61.77
54.88
44.41
30.69
14.62
-2.39
-18.62
-32.46
-42.79
-49.32
-52.61
-53.78
-54.06
-54.37
-55.01
-55.69
-55.80
-54.70
-52.08
-48.12
-43.39
-38.65
-34.48
-31.15
-28.51
-26.26
-24.06
-21.76
-19.37
-16.94
-14.48
-11.88
-9.08
-6.10
-3.19
-0.72
0.88
1.33
0.54
-1.35
-4.07
-7.30
-10.73
-14.17
-17.51
-20.75
-23.96
-27.17
-30.38
-33.48
-36.40
-39.14
-41.90
-44.99
-48.59
-52.51
-56.05
-58.06
-57.34
-53.15
-45.49
-35.21
-23.67
-12.31
-2.21
6.10
12.61
17.55
21.26
23.98
25.81
26.81
26.95
26.18
24.39
21.46
17.33
12.13
6.19
0.13
-5.35
-9.59
-12.13
-12.87
-11.98
-9.83
-6.86
-3.52
-0.22
2.58
4.41
4.68
2.82
-1.58
-8.59
-17.78
-28.11
-38.04
-45.93
-50.36
-50.57
-46.59
-39.22
-29.65
-19.07
-8.46
1.58
10.62
18.37
24.47
28.56
30.47
30.28
28.46
25.75
22.95
20.70
19.29
18.62
18.25
17.65
16.26
13.69
9.74
4.41
-2.03
-9.14
-16.37
-23.18
-29.18
-34.22
-38.41
-42.05
-45.39
-48.63
-51.71
-54.37
-56.13
-56.37
-54.42
-49.80
-42.36
-32.46
-20.98
-9.11
1.98
11.37
18.58
23.53
26.44
27.63
27.46
26.27
24.44
22.35
20.37
18.73
17.49
16.42
15.14
13.24
10.42
6.69
2.30
-2.27
-6.58
-10.30
-13.39
-16.02
-18.55
-21.34
-24.67
-28.70
-33.51
-39.00
-44.85
-50.40
-54.66
-56.48
-54.81
-49.17
-39.78
-27.63
-14.21
-1.12
10.41
19.69
26.57
31.29
34.11
35.26
34.85
33.04
30.17
26.80
23.57
20.97
19.13
17.74
16.22
14.07
11.08
7.47
3.75
0.35
-2.53
-5.11
-7.85
-11.22
-15.54
-20.84
-26.98
-33.67
-40.46
-46.73
-51.59
-54.03
-53.10
-48.33
-39.93
-28.86
-16.52
-4.35
6.55
15.59
22.61
27.66
30.78
32.01
31.45
29.39
26.36
23.01
19.92
17.38
15.38
13.67
11.91
9.86
7.46
4.79
2.02
-0.75
-3.52
-6.38
-9.47
-12.96
-17.03
-21.86
-27.59
-34.22
-41.43
-48.45
-54.09
-56.96
-55.88
-50.26
-40.36
-27.28
-12.57
2.16
15.66
27.13
36.21
42.82
46.96
48.70
48.21
45.91
42.42
38.54
34.92
31.94
29.59
27.57
25.43
22.82
19.55
15.59
11.08
6.19
1.12
-3.95
-8.84
-13.50
-17.96
-22.40
-27.10
-32.29
-38.00
-43.93
-49.34
-53.16
-54.23
-51.67
-45.21
-35.34
-23.15
-10.00
2.89
14.68
24.95
33.53
40.33
45.18
47.90
48.49
47.17
44.46
41.01
37.41
34.04
31.01
28.20
25.39
22.42
19.22
15.88
12.55
9.30
6.11
2.78
-0.96
-5.31
-10.37
-16.11
-22.43
-29.22
-36.34
-43.41
-49.72
-54.14
-55.43
-52.62
-45.43
-34.47
-21.11
-7.04
6.25
17.83
27.40
35.04
40.95
45.19
47.75
48.64
48.06
46.39
44.18
41.83
39.52
37.19
34.62
31.65
28.26
24.57
20.74
16.87
12.89
8.58
3.75
-1.62
-7.30
-13.03
-18.63
-24.09
-29.62
-35.45
-41.69
-48.02
-53.56
-57.06
-57.35
-53.59
-45.54
-33.49
-18.33
-1.56
14.83
28.89
38.84
43.40
42.24
36.29
27.62
18.80
11.98
8.29
8.15
11.28
17.08
24.99
34.52
45.01
55.28
63.49
65.17
57.29
39.87
16.41
-8.28
-30.31
-47.53
-58.87
-64.48
-64.59
-59.61
-51.17
-42.23
-36.15
-35.29
-39.98
-47.92
-54.77
-55.86
-47.67
-29.42
-3.25
26.74
56.44
82.85
104.14
119.53
128.35
129.84
122.59
105.10
77.27
42.42
7.51
-18.53
-27.54
-15.88
14.28
55.60
96.85
125.78
134.53
122.80
95.68
59.10
16.57
-29.24
-74.39
-113.23
-140.14
-151.89
-149.38
-139.59
-127.02
-114.84
-103.87
-93.20
-81.57
-68.21
-53.11
-36.93
-20.84
-5.89
6.36
14.68
18.30
16.83
10.94
2.51
-5.91
-12.10
-14.71
-14.24
-12.29
-10.69
-10.55
-11.49
-11.67
-8.57
-0.21
14.25
33.61
55.26
75.82
92.11
102.09
105.54
104.36
101.85
101.70
106.21
115.30
126.25
134.34
134.03
120.39
90.57
45.24
-10.37
-66.87
-112.58
-137.14
-135.33
-109.34
-68.09
-23.80
12.74
35.60
44.40
42.33
33.26
19.57
2.15
-18.36
-40.23
-60.45
-75.80
-84.42
-86.73
-85.14
-82.88
-82.39
-84.35
-87.66
-90.29
-90.51
-87.78
-83.08
-78.43
-76.00
-77.13
-81.86
-89.08
-97.14
-104.63
-110.86
-115.83
-119.84
-123.02
-125.02
-125.14
-122.64
-117.04
-108.25
-96.52
-82.15
-65.38
-46.45
-25.66
-3.56
19.08
41.36
62.42
81.53
98.08
111.59
121.56
127.58
129.30
126.56
119.55
108.93
95.72
81.24
66.79
53.44
41.74
31.84
23.54
16.59
10.87
6.39
3.25
1.43
0.63
0.28
-0.36
-1.85
-4.33
-7.36
-9.93
-10.78
-8.78
-3.35
5.40
16.63
29.09
41.38
52.31
61.01
66.99
70.12
70.54
68.71
65.36
61.52
58.33
56.80
57.47
60.06
63.52
66.32
67.04
64.87
59.91
53.02
45.43
38.22
32.07
27.24
23.76
21.56
20.54
20.42
20.67
20.53
19.14
15.71
9.65
0.67
-11.21
-25.49
-41.16
-56.73
-70.39
-80.33
-85.19
-84.51
-78.88
-69.86
-59.49
-49.73
-41.83
-36.15
-32.26
-29.18
-25.75
-20.74
-13.08
-2.06
12.37
29.28
46.76
62.28
73.45
78.64
77.42
70.40
58.84
44.25
28.18
12.31
-1.68
-12.21
-18.30
-19.96
-18.35
-15.45
-13.40
-13.89
-17.60
-24.18
-32.39
-40.68
-47.56
-52.07
-53.82
-52.99
-50.15
-46.04
-41.42
-36.87
-32.76
-29.17
-25.89
-22.63
-19.13
-15.38
-11.60
-8.15
-5.30
-3.05
-1.13
0.83
3.03
5.38
7.45
8.75
8.93
8.03
6.36
4.38
2.44
0.66
-1.04
-2.84
-4.87
-7.12
-9.43
-11.54
-13.06
-13.53
-12.55
-9.86
-5.54
-0.12
5.51
10.37
13.72
15.38
15.72
15.47
15.33
15.69
16.50
17.37
17.83
17.53
16.39
14.55
12.26
9.72
6.97
3.87
0.15
-4.49
-10.31
-17.41
-25.80
-35.34
-45.78
-56.77
-67.82
-78.30
-87.54
-94.94
-100.12
-102.91
-103.27
-101.19
-96.57
-89.32
-79.50
-67.49
-54.05
-40.19
-26.92
-15.01
-4.87
3.49
10.27
15.74
20.02
23.14
25.02
25.61
24.98
23.43
21.46
19.60
18.24
17.48
17.05
16.45
15.20
13.08
10.22
7.07
4.11
1.61
-0.50
-2.55
-4.97
-8.09
-12.07
-16.92
-22.53
-28.62
-34.64
-39.75
-42.91
-43.16
-39.96
-33.39
-24.19
-13.56
-2.82
6.91
14.82
20.52
23.92
25.14
24.38
21.97
18.30
13.88
9.24
4.70
0.20
-4.87
-11.46
-20.50
-32.41
-46.76
-62.24
-77.05
-89.46
-98.28
-103.14
-104.40
-102.86
-99.49
-95.21
-90.68
-86.24
-81.77
-76.64
-69.73
-59.66
-45.13
-25.45
-0.94
27.03
56.25
84.24
108.95
129.18
144.76
156.31
164.78
170.98
175.24
177.32
176.71
172.88
165.64
155.28
142.58
128.54
114.12
99.99
86.36
73.09
59.84
46.46
33.14
20.45
9.21
0.13
-6.31
-10.09
-11.53
-11.14
-9.49
-7.16
-4.61
-2.12
0.39
3.57
8.58
16.82
29.36
46.38
66.91
89.04
110.46
129.28
144.56
156.52
166.34
175.62
185.78
197.67
211.38
226.43
241.98
257.17
271.09
282.87
291.66
296.82
298.37
297.24
295.21
294.12
294.89
296.76
297.45
294.20
285.21
270.70
252.93
235.24
220.39
209.41
201.05
192.28
179.38
158.92
128.43
86.63
33.52
-29.56
-99.70
-172.81
-244.34
-310.53
-369.67
-422.64
-472.36
-521.83
-571.73
-618.87
-656.31
-675.82
-671.03
-640.14
-586.57
-517.63
-441.99
-367.59
-300.54
-245.36
-205.29
-182.30
-176.49
-185.41
-204.07
-225.96
-244.75
-255.77
-256.74
-247.41
-228.80
-202.52
-170.24
-133.62
-94.25
-53.59
-12.89
26.84
64.74
100.01
131.76
159.10
181.26
197.71
208.42
213.85
214.80
212.22
206.82
198.94
188.57
175.53
159.78
141.66
121.95
101.73
82.22
64.58
49.61
37.68
28.66
22.01
16.99
12.84
8.95
4.91
0.42
-4.70
-10.50
-16.78
-22.98
-28.14
-31.16
-31.11
-27.71
-21.42
-13.41
-5.11
2.17
7.62
11.05
12.85
13.77
14.60
15.90
17.87
20.44
23.45
26.90
31.02
36.07
42.20
49.25
56.85
64.67
72.56
80.55
88.37
95.08
99.01
98.29
91.87
80.37
66.19
52.84
43.69
40.82
44.53
53.52
65.64
78.53
90.16
98.92
103.68
103.99
100.15
93.36
85.31
77.69
71.46
66.68
62.64
58.34
53.05
46.57
39.16
31.34
23.60
16.17
8.96
1.47
-7.17
-18.06
-32.24
-50.15
-71.30
-94.21
-116.68
-136.53
-152.21
-163.15
-169.69
-172.72
-173.13
-171.51
-168.08
-162.77
-155.48
-146.24
-135.30
-123.06
-109.95
-96.39
-82.76
-69.48
-57.07
-46.05
-36.89
-29.75
-24.28
-19.72
-15.04
-9.37
-2.22
6.33
15.88
25.93
36.15
46.49
57.10
68.17
79.63
90.98
101.12
108.57
111.73
109.48
101.57
88.86
73.17
56.77
41.83
29.88
21.57
16.76
14.68
14.29
14.44
14.16
12.83
10.34
7.11
3.93
1.68
0.94
1.79
3.73
6.03
7.92
8.94
8.96
8.13
6.68
4.80
2.70
0.67
-0.86
-1.33
-0.28
2.59
7.20
13.18
19.92
26.76
33.14
38.68
43.26
46.98
50.08
52.74
54.89
56.15
55.78
53.01
47.23
38.31
26.69
13.34
-0.40
-13.14
-23.73
-31.57
-36.79
-40.12
-42.65
-45.34
-48.73
-52.76
-56.98
-60.86
-64.06
-66.52
-68.39
-69.77
-70.60
-70.68
-69.86
-68.24
-66.23
-64.42
-63.35
-63.33
-64.36
-66.16
-68.36
-70.61
-72.76
-74.85
-77.11
-79.74
-82.80
-85.98
-88.64
-89.96
-89.21
-86.01
-80.45
-73.02
-64.41
-55.25
-45.98
-36.86
-28.03
-19.63
-11.83
-4.78
1.43
6.79
11.42
15.46
19.07
22.34
25.30
27.89
29.98
31.46
32.25
32.38
31.99
31.30
30.54
29.83
29.17
28.45
27.47
26.12
24.42
22.45
20.33
18.14
15.88
13.59
11.37
9.43
7.99
7.26
7.28
7.94
9.05
10.40
11.84
13.35
14.97
16.79
18.94
21.41
24.09
26.69
28.85
30.26
30.77
30.46
29.57
28.33
26.88
25.27
23.42
21.32
19.02
16.66
14.37
12.23
10.23
8.29
6.36
4.39
2.39
0.36
-1.69
-3.69
-5.51
-6.92
-7.62
-7.34
-5.87
-3.18
0.59
5.13
10.07
15.02
19.70
23.92
27.63
30.84
33.57
35.84
37.70
39.17
40.30
41.16
41.77
42.14
42.26
42.11
41.64
40.80
39.52
37.70
35.29
32.32
28.89
25.13
21.11
16.82
12.20
7.21
1.98
-3.23
-8.17
-12.74
-17.14
-21.78
-27.12
-33.43
-40.61
-48.15
-55.27
-61.11
-65.06
-66.82
-66.49
-64.44
-61.14
-57.02
-52.41
-47.60
-42.90
-38.70
-35.35
-33.03
-31.60
-30.54
-29.17
-26.90
-23.52
-19.33
-14.95
-11.10
-8.23
-6.40
-5.37
-4.73
-4.21
-3.76
-3.53
-3.74
-4.57
-6.01
-7.96
-10.25
-12.78
-15.45
-18.15
-20.64
-22.53
-23.31
-22.57
-20.16
-16.23
-11.26
-5.86
-0.58
4.20
8.34
11.81
14.68
17.00
18.83
20.21
21.17
21.78
22.09
22.10
21.83
21.23
20.30
19.06
17.57
15.96
14.37
12.93
11.70
10.66
9.72
8.77
7.68
6.38
4.79
2.92
0.79
-1.48
-3.76
-5.85
-7.53
-8.59
-8.76
-7.90
-5.94
-3.00
0.67
4.66
8.58
12.08
14.93
16.98
18.18
18.58
18.30
17.52
16.43
15.18
13.79
12.24
10.54
8.74
6.94
5.31
3.92
2.76
1.73
0.71
-0.42
-1.64
-2.91
-4.15
-5.31
-6.39
-7.49
-8.69
-10.04
-11.50
-12.92
-14.04
-14.59
-14.33
-13.05
-10.71
-7.36
-3.19
1.41
5.99
10.02
13.07
14.94
15.71
15.75
15.58
15.66
16.34
17.65
19.44
21.34
22.96
23.92
23.91
22.73
20.33
16.82
12.54
7.99
3.74
0.24
-2.27
-3.88
-4.88
-5.66
-6.61
-7.97
-9.86
-12.23
-14.92
-17.61
-19.91
-21.33
-21.49
-20.21
-17.57
-13.88
-9.58
-5.07
-0.61
3.64
7.64
11.34
14.68
17.58
19.99
21.89
23.27
24.11
24.38
24.05
23.17
21.96
20.74
19.82
19.39
19.37
19.48
19.34
18.62
17.21
15.09
12.36
9.03
5.05
0.36
-5.10
-11.22
-17.81
-24.58
-31.10
-36.86
-41.32
-43.96
-44.55
-43.24
-40.54
-37.21
-33.92
-31.07
-28.67
-26.54
-24.49
-22.50
-20.75
-19.48
-18.85
-18.86
-19.36
-20.18
-21.21
-22.36
-23.56
-24.70
-25.60
-26.18
-26.40
-26.39
-26.25
-26.04
-25.70
-25.00
-23.73
-21.72
-19.02
-15.86
-12.63
-9.69
-7.24
-5.18
-3.05
-0.26
3.77
9.32
16.30
24.26
32.60
40.75
48.26
54.84
60.26
64.33
66.89
67.88
67.33
65.39
62.21
58.00
52.98
47.42
41.72
36.37
31.92
28.89
27.70
28.56
31.32
35.44
40.00
43.89
46.18
46.37
44.57
41.46
37.98
34.91
32.60
30.82
28.88
25.90
21.03
13.71
3.82
-8.23
-21.49
-34.62
-46.18
-54.99
-60.44
-62.65
-62.36
-60.57
-58.14
-55.52
-52.65
-49.12
-44.53
-38.67
-31.68
-23.96
-16.01
-8.24
-0.93
5.74
11.72
16.95
21.42
25.24
28.61
31.78
34.93
38.07
41.00
43.32
44.51
44.10
41.76
37.43
31.35
23.99
16.06
8.27
1.30
-4.36
-8.46
-11.10
-12.69
-13.89
-15.45
-17.94
-21.56
-26.01
-30.53
-34.26
-36.45
-36.85
-35.59
-33.13
-29.90
-26.12
-21.77
-16.72
-10.92
-4.54
2.01
8.21
13.66
18.09
21.41
23.62
24.69
24.58
23.34
21.15
18.42
15.66
13.36
11.81
11.03
10.79
10.81
10.83
10.78
10.74
10.81
10.99
11.05
10.57
9.04
6.03
1.41
-4.55
-11.25
-17.90
-23.77
-28.43
-31.76
-34.02
-35.60
-36.88
-38.11
-39.34
-40.41
-41.05
-40.96
-39.88
-37.71
-34.50
-30.54
-26.26
-22.12
-18.58
-15.93
-14.32
-13.72
-13.99
-14.88
-16.08
-17.27
-18.17
-18.64
-18.73
-18.72
-19.02
-20.06
-22.02
-24.70
-27.56
-29.78
-30.63
-29.64
-26.72
-22.16
-16.42
-9.95
-3.14
3.71
10.32
16.39
21.68
26.07
29.56
32.28
34.31
35.71
36.39
36.29
35.41
33.87
31.91
29.78
27.64
25.56
23.51
21.43
19.24
16.93
14.51
12.03
9.52
7.06
4.71
2.60
0.77
-0.81
-2.35
-4.15
-6.45
-9.28
-12.20
-14.41
-14.89
-12.77
-7.68
0.09
9.72
20.11
30.32
39.79
48.35
56.17
63.36
69.82
75.13
78.64
79.70
77.93
73.29
66.09
56.85
46.13
34.44
22.23
9.92
-1.98
-12.96
-22.63
-30.80
-37.61
-43.43
-48.77
-53.96
-59.05
-63.76
-67.53
-69.84
-70.39
-69.27
-66.95
-64.06
-61.12
-58.34
-55.61
-52.60
-49.08
-45.04
-40.69
-36.24
-31.70
-26.74
-20.92
-13.94
-5.94
2.46
10.37
17.01
22.05
25.61
28.20
30.30
32.16
33.75
34.86
35.30
35.02
34.11
32.65
30.66
28.05
24.75
20.83
16.51
12.17
8.17
4.76
2.10
0.28
-0.54
-0.15
1.61
4.74
8.96
13.78
18.60
22.88
26.25
28.59
29.90
30.35
30.16
29.65
29.13
28.89
29.06
29.58
30.17
30.51
30.33
29.58
28.41
27.09
25.84
24.76
23.74
22.59
21.10
19.18
16.83
14.16
11.32
8.45
5.66
3.09
0.85
-0.98
-2.35
-3.29
-3.87
-4.16
-4.24
-4.19
-4.14
-4.32
-4.98
-6.34
-8.49
-11.32
-14.54
-17.86
-21.07
-24.08
-26.94
-29.66
-32.15
-34.19
-35.55
-36.13
-36.07
-35.68
-35.30
-35.15
-35.25
-35.50
-35.78
-36.02
-36.21
-36.32
-36.24
-35.79
-34.82
-33.36
-31.68
-30.22
-29.42
-29.58
-30.69
-32.50
-34.61
-36.71
-38.67
-40.59
-42.79
-45.62
-49.36
-53.98
-59.12
-63.91
-67.26
-68.00
-65.31
-58.95
-49.31
-37.38
-24.37
-11.49
0.43
10.96
20.09
28.01
34.97
41.10
46.39
50.71
53.98
56.26
57.72
58.58
58.95
58.83
58.10
56.69
54.66
52.17
49.45
46.62
43.75
40.81
37.77
34.61
31.27
27.66
23.61
19.03
13.88
8.28
2.36
-3.73
-9.91
-16.09
-22.09
-27.61
-32.31
-35.90
-38.21
-39.24
-39.06
-37.71
-35.18
-31.42
-26.50
-20.62
-14.18
-7.66
-1.45
4.16
9.09
13.38
17.09
20.22
22.76
24.61
25.73
26.08
25.64
24.40
22.38
19.60
16.11
12.04
7.57
2.99
-1.36
-5.10
-7.92
-9.73
-10.66
-11.03
-11.15
-11.17
-11.00
-10.30
-8.68
-5.84
-1.80
3.12
8.32
13.18
17.22
20.32
22.69
24.73
26.82
29.07
31.31
33.14
34.18
34.25
33.43
31.99
30.28
28.51
26.79
25.09
23.30
21.35
19.22
16.97
14.78
12.92
11.68
11.24
11.65
12.80
14.40
16.06
17.32
17.70
16.81
14.50
10.88
6.48
2.15
-1.17
-2.67
-1.94
0.96
5.57
11.15
16.90
22.05
25.91
27.93
27.74
25.31
20.97
15.41
9.49
3.97
-0.69
-4.44
-7.58
-10.57
-13.80
-17.48
-21.67
-26.33
-31.44
-37.03
-43.06
-49.38
-55.63
-61.34
-66.06
-69.51
-71.74
-73.03
-73.82
-74.58
-75.71
-77.46
-79.95
-83.05
-86.33
-89.03
-90.19
-88.92
-84.64
-77.31
-67.43
-55.90
-43.75
-31.90
-21.08
-11.77
-4.20
1.61
5.85
8.93
11.33
13.53
15.83
18.27
20.69
22.79
24.34
25.27
25.73
26.01
26.37
26.95
27.68
28.38
28.79
28.74
28.17
27.03
25.32
23.05
20.28
17.17
14.00
11.06
8.52
6.37
4.50
2.85
1.59
1.15
2.02
4.58
8.83
14.49
21.09
28.22
35.56
42.84
49.65
55.40
59.40
61.06
60.15
56.83
51.60
45.04
37.68
29.91
22.01
14.18
6.60
-0.56
-7.19
-13.23
-18.71
-23.68
-28.22
-32.41
-36.26
-39.73
-42.65
-44.84
-46.19
-46.75
-46.83
-46.95
-47.72
-49.66
-53.06
-57.95
-64.08
-70.85
-77.30
-82.12
-83.79
-80.96
-72.82
-59.49
-42.04
-22.22
-1.86
17.62
35.54
51.86
66.86
80.74
93.38
104.37
113.21
119.53
123.27
124.60
123.86
121.37
117.38
112.04
105.56
98.22
90.47
82.84
75.75
69.41
63.60
57.78
51.27
43.54
34.43
24.28
13.76
3.65
-5.42
-13.19
-19.78
-25.56
-31.07
-36.83
-43.22
-50.37
-58.06
-65.64
-72.06
-76.11
-76.68
-73.10
-65.31
-53.96
-40.22
-25.49
-11.08
1.98
13.02
21.73
28.02
32.01
33.97
34.33
33.62
32.36
31.00
29.77
28.68
27.54
26.16
24.40
22.26
19.92
17.60
15.48
13.61
11.90
10.13
8.11
5.75
3.10
0.29
-2.53
-5.28
-8.02
-10.84
-13.91
-17.37
-21.31
-25.78
-30.64
-35.50
-39.67
-42.28
-42.42
-39.56
-33.71
-25.47
-15.85
-5.94
3.31
11.36
17.95
23.10
26.92
29.56
31.18
31.94
32.06
31.77
31.29
30.78
30.30
29.75
28.93
27.65
25.78
23.39
20.66
17.82
15.05
12.39
9.78
7.11
4.33
1.41
-1.58
-4.58
-7.55
-10.49
-13.43
-16.45
-19.73
-23.48
-27.93
-33.15
-38.96
-44.74
-49.62
-52.63
-53.04
-50.61
-45.68
-39.06
-31.67
-24.32
-17.50
-11.39
-6.02
-1.38
2.49
5.52
7.69
9.04
9.65
9.58
8.86
7.55
5.84
4.02
2.51
1.70
1.84
2.98
4.93
7.28
9.49
10.99
11.27
9.99
7.11
2.85
-2.37
-8.00
-13.53
-18.70
-23.43
-27.90
-32.28
-36.57
-40.47
-43.32
-44.33
-42.86
-38.70
-32.18
-24.12
-15.57
-7.48
-0.53
5.00
9.10
11.95
13.79
14.91
15.53
15.90
16.14
16.27
16.12
15.48
14.15
12.10
9.52
6.68
3.86
1.20
-1.30
-3.73
-6.12
-8.45
-10.63
-12.68
-14.69
-16.83
-19.20
-21.77
-24.45
-27.17
-30.06
-33.36
-37.28
-41.70
-46.01
-49.20
-50.20
-48.20
-43.02
-35.14
-25.44
-14.97
-4.59
5.14
13.89
21.46
27.68
32.37
35.39
36.71
36.45
34.81
32.00
28.14
23.31
17.58
11.12
4.24
-2.66
-9.22
-15.17
-20.40
-24.84
-28.39
-30.90
-32.26
-32.51
-31.96
-31.12
-30.52
-30.63
-31.68
-33.71
-36.60
-40.00
-43.36
-45.85
-46.58
-44.79
-40.12
-32.79
-23.48
-13.18
-2.84
6.80
15.32
22.52
28.39
33.02
36.55
39.17
41.04
42.27
42.95
43.10
42.82
42.25
41.58
40.96
40.51
40.18
39.87
39.39
38.59
37.38
35.84
34.15
32.47
30.84
29.05
26.66
23.14
18.05
11.20
2.77
-6.69
-16.32
-24.99
-31.60
-35.22
-35.27
-31.81
-25.39
-16.99
-7.73
1.40
9.69
16.72
22.24
26.02
27.83
27.55
25.28
21.47
16.88
12.40
8.78
6.49
5.67
6.21
7.97
10.79
14.56
19.09
23.99
28.78
32.84
35.58
36.48
35.22
31.74
26.43
20.12
14.06
9.64
7.93
9.31
13.32
18.84
24.59
29.66
33.78
37.28
40.69
44.29
47.85
50.74
52.23
51.97
50.13
47.36
44.35
41.58
39.13
36.80
34.48
32.32
30.72
30.09
30.51
31.50
32.16
31.44
28.47
22.86
14.72
4.55
-6.85
-18.51
-29.45
-38.86
-46.38
-52.28
-57.51
-63.36
-71.01
-81.00
-92.89
-105.34
-116.46
-124.38
-127.78
-126.25
-120.24
-110.91
-99.65
-87.76
-76.19
-65.50
-55.96
-47.69
-40.80
-35.33
-31.28
-28.46
-26.49
-24.86
-23.09
-20.80
-17.82
-14.17
-9.95
-5.34
-0.51
4.25
8.59
12.05
14.15
14.58
13.30
10.64
7.16
3.46
-0.10
-3.45
-6.78
-10.29
-13.89
-17.13
-19.22
-19.35
-16.87
-11.59
-3.83
5.65
15.70
25.02
32.35
36.91
38.55
37.93
36.21
34.67
34.18
34.90
36.38
37.89
38.86
39.13
38.78
37.76
35.60
31.35
23.93
12.77
-1.74
-18.13
-34.19
-47.69
-57.15
-62.31
-64.16
-64.50
-65.26
-67.89
-72.88
-79.74
-87.21
-93.72
-97.80
-98.49
-95.50
-89.25
-80.72
-71.16
-61.78
-53.41
-46.31
-40.25
-34.67
-29.07
-23.23
-17.31
-11.72
-6.87
-3.02
-0.13
2.04
3.84
5.63
7.71
10.31
13.53
17.42
21.85
26.58
31.30
35.62
39.20
41.76
43.13
43.29
42.31
40.38
37.70
34.53
31.27
28.55
27.24
28.28
32.32
39.35
48.43
57.91
65.86
70.75
72.01
70.14
66.48
62.61
59.76
58.43
58.31
58.63
58.58
57.65
55.87
53.61
51.25
48.84
45.90
41.67
35.50
27.21
17.34
7.00
-2.58
-10.44
-16.23
-20.30
-23.64
-27.62
-33.64
-42.67
-54.84
-69.20
-83.81
-96.23
-104.26
-106.53
-102.88
-94.23
-82.17
-68.47
-54.74
-42.12
-31.34
-22.72
-16.24
-11.73
-8.87
-7.38
-6.92
-7.09
-7.45
-7.49
-6.80
-5.22
-2.83
0.05
3.04
5.86
8.42
10.79
13.07
15.27
17.24
18.77
19.55
19.40
18.21
15.93
12.53
7.95
2.24
-4.23
-10.58
-15.34
-16.77
-13.40
-4.61
8.92
25.25
41.63
55.35
64.53
68.70
68.78
66.63
64.28
63.24
64.06
66.39
69.38
72.14
74.14
75.27
75.64
75.27
73.88
70.96
66.09
59.23
50.86
41.93
33.40
26.02
20.03
15.25
11.22
7.37
3.12
-2.18
-9.22
-18.56
-30.20
-43.37
-56.40
-67.07
-73.29
-73.80
-68.62
-59.04
-47.27
-35.71
-26.44
-20.72
-18.84
-20.18
-23.53
-27.44
-30.65
-32.41
-32.62
-31.73
-30.47
-29.47
-29.03
-29.06
-29.23
-29.14
-28.58
-27.53
-26.13
-24.62
-23.25
-22.26
-21.93
-22.50
-24.09
-26.68
-30.15
-34.36
-39.27
-44.95
-51.36
-58.06
-64.00
-67.54
-66.95
-60.97
-49.37
-33.02
-13.62
6.82
26.54
44.37
59.71
72.37
82.39
89.93
95.23
98.68
100.76
101.97
102.70
103.16
103.33
103.07
102.19
100.53
98.04
94.76
90.79
86.25
81.19
75.56
69.26
62.10
53.89
44.55
34.14
22.92
11.23
-0.55
-12.06
-22.95
-32.79
-41.01
-46.91
-49.76
-49.05
-44.68
-37.09
-27.28
-16.62
-6.49
2.03
8.40
12.69
15.47
17.50
19.49
21.92
24.93
28.29
31.30
32.94
32.01
27.60
19.56
8.76
-3.02
-13.73
-21.84
-26.93
-29.70
-31.58
-33.94
-37.55
-42.47
-48.26
-54.47
-60.86
-67.44
-74.22
-80.95
-86.94
-91.24
-92.84
-91.04
-85.69
-77.24
-66.67
-55.18
-43.91
-33.61
-24.56
-16.70
-9.84
-3.98
0.66
3.67
4.73
3.84
1.45
-1.70
-4.84
-7.50
-9.68
-11.71
-14.09
-17.11
-20.81
-24.89
-28.91
-32.53
-35.57
-38.09
-40.24
-42.25
-44.28
-46.46
-48.85
-51.35
-53.65
-55.09
-54.77
-51.78
-45.50
-35.89
-23.60
-9.82
4.10
17.02
28.27
37.61
45.10
50.84
54.81
56.96
57.31
56.12
53.91
51.34
48.98
47.18
45.92
44.93
43.82
42.23
39.98
37.05
33.56
29.73
25.76
21.82
17.97
14.19
10.27
5.93
0.85
-5.19
-12.08
-19.34
-26.09
-31.22
-33.68
-32.77
-28.41
-21.08
-11.77
-1.63
8.29
17.18
24.65
30.59
35.17
38.66
41.34
43.42
45.00
46.05
46.53
46.37
45.60
44.28
42.54
40.52
38.25
35.77
33.05
30.10
26.96
23.66
20.20
16.46
12.22
7.22
1.24
-5.83
-14.01
-23.21
-33.30
-43.98
-54.64
-64.28
-71.59
-75.25
-74.39
-68.96
-59.85
-48.59
-36.83
-25.78
-15.88
-6.91
1.70
10.31
18.80
26.62
33.01
37.34
39.31
38.96
36.47
32.14
26.31
19.49
12.48
6.23
1.63
-0.86
-1.36
-0.54
0.67
1.49
1.49
0.71
-0.66
-2.40
-4.49
-7.13
-10.53
-14.80
-19.67
-24.57
-28.62
-30.90
-30.66
-27.53
-21.63
-13.52
-4.00
6.15
16.38
26.48
36.41
46.18
55.64
64.36
71.84
77.62
81.51
83.63
84.36
84.18
83.53
82.73
81.89
80.92
79.54
77.37
74.19
70.09
65.56
61.37
58.16
56.06
54.56
52.65
49.20
43.49
35.36
25.17
13.42
0.54
-13.18
-27.47
-41.81
-55.44
-67.49
-77.22
-84.25
-88.57
-90.43
-90.10
-87.79
-83.59
-77.58
-69.93
-61.05
-51.52
-42.04
-33.27
-25.68
-19.41
-14.29
-9.89
-5.75
-1.55
2.73
6.85
10.41
13.07
14.74
15.63
16.16
16.78
17.81
19.28
20.95
22.41
23.20
22.88
21.10
17.63
12.38
5.48
-2.70
-11.57
-20.38
-28.48
-35.33
-40.63
-44.32
-46.47
-47.30
-47.05
-46.02
-44.42
-42.39
-40.02
-37.35
-34.41
-31.30
-28.13
-25.03
-22.24
-20.01
-18.60
-18.10
-18.25
-18.39
-17.63
-15.19
-10.80
-4.88
1.61
7.45
11.76
14.13
14.75
14.08
12.55
10.27
7.05
2.49
-3.71
-11.44
-20.15
-28.81
-36.17
-41.08
-42.79
-41.11
-36.44
-29.56
-21.37
-12.59
-3.65
5.30
14.28
23.35
32.53
41.82
51.18
60.50
69.50
77.68
84.30
88.50
89.54
87.05
81.09
72.14
60.85
47.83
33.55
18.32
2.47
-13.57
-29.16
-43.54
-55.97
-65.85
-72.93
-77.32
-79.54
-80.32
-80.51
-80.75
-81.30
-81.88
-81.70
-79.72
-75.04
-67.20
-56.37
-43.34
-29.22
-15.11
-1.86
10.01
20.26
28.81
35.64
40.78
44.31
46.48
47.67
48.35
48.98
49.96
51.45
53.48
55.93
58.56
61.14
63.35
64.85
65.29
64.33
61.74
57.49
51.75
44.82
37.11
28.98
20.68
12.36
4.08
-4.11
-12.03
-19.31
-25.34
-29.41
-30.86
-29.34
-24.97
-18.32
-10.24
-1.65
6.69
14.25
20.72
25.90
29.65
31.88
32.60
31.99
30.38
28.19
25.86
23.69
21.74
19.86
17.74
15.05
11.59
7.36
2.61
-2.31
-6.93
-10.82
-13.60
-15.08
-15.31
-14.61
-13.44
-12.28
-11.44
-11.08
-11.26
-12.04
-13.60
-16.04
-19.30
-23.00
-26.54
-29.27
-30.81
-31.11
-30.44
-29.24
-27.91
-26.76
-26.02
-25.80
-26.13
-26.94
-28.04
-29.27
-30.50
-31.65
-32.69
-33.50
-33.89
-33.68
-32.85
-31.57
-30.18
-29.04
-28.35
-28.21
-28.62
-29.65
-31.38
-33.92
-37.21
-41.10
-45.29
-49.54
-53.67
-57.47
-60.62
-62.51
-62.38
-59.45
-53.33
-44.12
-32.52
-19.56
-6.27
6.57
18.57
29.70
40.05
49.68
58.46
66.07
72.22
76.72
79.73
81.58
82.66
83.18
82.97
81.66
78.80
74.13
67.71
59.82
50.84
41.05
30.64
19.79
8.89
-1.45
-10.55
-17.92
-23.52
-27.86
-31.83
-36.37
-42.10
-49.05
-56.65
-63.83
-69.49
-72.73
-73.17
-71.04
-67.02
-62.07
-57.10
-52.78
-49.39
-46.85
-44.84
-42.92
-40.68
-37.81
-34.15
-29.65
-24.40
-18.56
-12.27
-5.65
1.26
8.49
16.12
24.18
32.59
41.17
49.65
57.71
65.04
71.42
76.60
80.37
82.54
82.97
81.55
78.23
72.94
65.63
56.30
45.20
32.93
20.44
8.81
-1.06
-8.71
-14.21
-17.97
-20.48
-22.02
-22.64
-22.26
-20.96
-19.06
-17.06
-15.45
-14.55
-14.36
-14.69
-15.26
-15.82
-16.23
-16.43
-16.44
-16.34
-16.32
-16.64
-17.64
-19.62
-22.72
-26.96
-32.22
-38.35
-45.16
-52.43
-59.85
-66.99
-73.41
-78.72
-82.66
-85.02
-85.52
-83.81
-79.42
-72.05
-61.75
-49.05
-34.91
-20.49
-6.83
5.34
15.73
24.34
31.39
37.11
41.71
45.29
47.88
49.47
50.03
49.60
48.32
46.45
44.27
42.07
40.05
38.21
36.41
34.39
31.87
28.65
24.70
20.12
15.11
9.85
4.45
-1.04
-6.62
-12.35
-18.28
-24.47
-30.89
-37.36
-43.36
-48.10
-50.61
-50.07
-46.14
-39.11
-29.81
-19.40
-8.97
0.73
9.31
16.71
23.00
28.22
32.35
35.36
37.27
38.16
38.15
37.40
35.99
34.00
31.50
28.61
25.51
22.40
19.48
16.80
14.30
11.79
9.05
5.89
2.31
-1.57
-5.51
-9.27
-12.72
-15.90
-19.01
-22.38
-26.36
-31.12
-36.53
-42.07
-46.85
-49.78
-49.92
-46.72
-40.26
-31.28
-20.85
-10.09
0.13
9.34
17.38
24.19
29.72
33.84
36.44
37.58
37.55
36.75
35.63
34.44
33.23
31.87
30.19
28.13
25.78
23.35
21.05
18.91
16.80
14.41
11.43
7.75
3.50
-0.97
-5.23
-9.01
-12.26
-15.25
-18.42
-22.21
-26.86
-32.29
-37.95
-42.92
-46.13
-46.58
-43.67
-37.37
-28.23
-17.25
-5.57
5.75
15.94
24.51
31.28
36.22
39.44
41.16
41.64
41.19
40.12
38.72
37.17
35.59
33.94
32.13
30.08
27.78
25.32
22.80
20.27
17.65
14.76
11.41
7.50
3.14
-1.40
-5.75
-9.67
-13.07
-16.09
-19.02
-22.26
-26.13
-30.82
-36.21
-41.85
-46.91
-50.33
-51.16
-48.75
-43.02
-34.46
-23.97
-12.62
-1.38
9.02
18.13
25.71
31.69
36.10
39.03
40.65
41.21
40.98
40.27
39.31
38.20
36.89
35.24
33.14
30.61
27.84
25.14
22.73
20.68
18.84
16.89
14.52
11.57
8.01
3.99
-0.28
-4.59
-8.76
-12.75
-16.55
-20.30
-24.18
-28.37
-32.99
-37.98
-43.00
-47.35
-50.12
-50.34
-47.36
-41.10
-32.14
-21.60
-10.72
-0.54
8.38
15.93
22.25
27.43
31.43
34.15
35.54
35.80
35.31
34.52
33.75
33.07
32.34
31.31
29.81
27.80
25.46
23.11
21.04
19.40
18.09
16.78
15.03
12.49
9.04
4.85
0.21
-4.49
-9.00
-13.20
-17.08
-20.75
-24.37
-28.19
-32.43
-37.23
-42.42
-47.42
-51.31
-53.03
-51.73
-47.09
-39.38
-29.41
-18.23
-6.88
3.86
13.49
21.77
28.59
33.93
37.80
40.31
41.62
42.03
41.86
41.40
40.84
40.22
39.43
38.25
36.56
34.32
31.70
28.95
26.31
23.88
21.62
19.30
16.67
13.54
9.84
5.60
1.01
-3.68
-8.19
-12.28
-15.89
-19.14
-22.33
-25.83
-29.99
-34.87
-40.22
-45.46
-49.76
-52.22
-52.10
-48.95
-42.78
-34.07
-23.63
-12.45
-1.46
8.65
17.44
24.75
30.55
34.84
37.67
39.11
39.33
38.54
37.05
35.14
33.00
30.75
28.40
25.94
23.35
20.63
17.83
15.01
12.23
9.50
6.77
3.89
0.64
-3.13
-7.45
-12.15
-16.88
-21.25
-24.98
-28.06
-30.77
-33.58
-36.96
-41.19
-46.28
-51.87
-57.30
-61.71
-64.18
-63.94
-60.56
-54.08
-45.06
-34.40
-23.13
-12.20
-2.24
6.37
13.51
19.17
23.40
26.27
27.97
28.80
29.08
29.13
29.14
29.10
28.84
28.15
26.85
24.98
22.74
20.45
18.40
16.71
15.26
13.76
11.82
9.19
5.81
1.85
-2.36
-6.48
-10.30
-13.77
-17.01
-20.23
-23.66
-27.47
-31.79
-36.61
-41.70
-46.55
-50.36
-52.13
-51.02
-46.61
-39.11
-29.35
-18.47
-7.56
2.59
11.59
19.32
25.76
30.84
34.52
36.77
37.69
37.58
36.83
35.86
34.95
34.19
33.43
32.40
30.81
28.56
25.75
22.72
19.83
17.30
15.13
13.02
10.62
7.65
4.05
0.02
-4.12
-8.03
-11.48
-14.39
-16.85
-19.08
-21.43
-24.27
-27.91
-32.42
-37.46
-42.24
-45.60
-46.31
-43.51
-36.97
-27.23
-15.39
-2.78
9.47
20.66
30.46
38.81
45.71
51.10
54.89
57.05
57.72
57.25
56.08
54.64
53.18
51.76
50.19
48.22
45.61
42.28
38.36
34.15
29.97
26.07
22.44
18.90
15.12
10.83
5.94
0.61
-4.85
-10.10
-14.88
-19.14
-23.03
-26.80
-30.78
-35.30
-40.62
-46.80
-53.63
-60.43
-66.14
-69.48
-69.30
-64.95
-56.55
-44.98
-31.62
-17.96
-5.17
6.07
15.57
23.42
29.79
34.77
38.36
40.55
41.45
41.29
40.39
39.08
37.52
35.72
33.60
31.07
28.12
24.86
21.48
18.17
15.07
12.17
9.34
6.37
3.01
-0.92
-5.47
-10.59
-16.10
-21.77
-27.38
-32.74
-37.79
-42.55
-47.23
-52.10
-57.50
-63.60
-70.24
-76.76
-82.01
-84.59
-83.24
-77.35
-67.08
-53.44
-37.87
-21.86
-6.56
7.36
19.64
30.21
39.06
46.20
51.65
55.51
58.02
59.43
59.95
59.66
58.45
56.20
52.80
48.26
42.76
36.58
29.98
23.16
16.13
8.81
1.12
-6.95
-15.25
-23.51
-31.38
-38.56
-44.81
-49.99
-54.07
-57.12
-59.38
-61.20
-63.10
-65.56
-68.98
-73.41
-78.43
-83.04
-85.78
-85.08
-79.73
-69.31
-54.43
-36.61
-17.68
0.76
17.78
33.15
47.09
59.80
71.16
80.72
88.01
92.85
95.55
96.76
97.19
97.26
96.97
95.99
93.92
90.60
86.26
81.42
76.70
72.52
68.96
65.74
62.40
58.56
54.07
49.03
43.68
38.20
32.66
26.99
21.09
14.91
8.46
1.72
-5.47
-13.27
-21.76
-30.56
-38.81
-45.29
-48.88
-48.96
-45.68
-39.88
-32.70
-25.16
-18.00
-11.69
-6.59
-3.16
-1.97
-3.47
-7.76
-14.37
-22.32
-30.38
-37.44
-42.87
-46.69
-49.43
-51.84
-54.46
-57.35
-60.16
-62.33
-63.48
-63.60
-63.11
-62.58
-62.47
-62.94
-63.78
-64.69
-65.40
-65.86
-66.29
-67.03
-68.46
-70.87
-74.36
-78.70
-83.23
-86.85
-88.15
-85.75
-78.68
-66.73
-50.52
-31.36
-10.89
9.32
28.04
44.49
58.24
69.10
77.03
82.16
84.85
85.73
85.64
85.43
85.74
86.77
88.29
89.73
90.48
90.20
88.97
87.22
85.57
84.56
84.47
85.30
86.82
88.60
90.00
90.23
88.38
83.56
75.11
62.75
46.73
27.80
7.10
-14.00
-34.09
-51.94
-66.59
-77.49
-84.51
-87.88
-88.05
-85.60
-81.07
-75.01
-67.93
-60.34
-52.72
-45.50
-39.01
-33.45
-28.88
-25.17
-22.13
-19.42
-16.75
-13.92
-10.92
-7.95
-5.36
-3.53
-2.76
-3.21
-4.79
-7.25
-10.25
-13.45
-16.64
-19.72
-22.77
-25.98
-29.61
-33.83
-38.61
-43.64
-48.23
-51.51
-52.59
-50.85
-46.12
-38.72
-29.34
-18.85
-8.06
2.44
12.30
21.39
29.66
37.05
43.49
48.84
53.00
55.89
57.54
58.12
57.84
56.95
55.67
54.18
52.57
50.84
48.96
46.83
44.36
41.50
38.34
35.04
31.79
28.67
25.58
22.23
18.31
13.60
8.12
2.27
-3.28
-7.60
-9.66
-8.58
-3.87
4.38
15.42
27.97
40.57
51.88
60.97
67.38
71.04
72.09
70.72
67.17
61.65
54.47
46.00
36.69
26.97
17.24
7.77
-1.27
-9.83
-17.99
-25.81
-33.32
-40.48
-47.19
-53.34
-58.91
-63.98
-68.72
-73.34
-77.96
-82.65
-87.44
-92.41
-97.65
-103.19
-108.77
-113.73
-117.04
-117.47
-114.06
-106.43
-94.93
-80.59
-64.80
-48.90
-33.94
-20.55
-8.96
0.76
8.62
14.56
18.49
20.39
20.40
18.95
16.62
14.05
11.63
9.45
7.31
4.85
1.82
-1.83
-5.94
-10.19
-14.27
-18.03
-21.47
-24.73
-28.03
-31.62
-35.75
-40.69
-46.61
-53.52
-61.11
-68.54
-74.59
-77.84
-77.13
-72.00
-62.89
-51.06
-38.18
-25.81
-14.98
-6.12
0.82
6.07
9.73
11.79
12.22
11.16
9.01
6.46
4.18
2.65
1.95
1.75
1.49
0.64
-1.07
-3.51
-6.28
-8.87
-10.95
-12.45
-13.56
-14.66
-16.10
-18.17
-20.92
-24.18
-27.49
-30.06
-30.93
-29.17
-24.16
-15.85
-4.79
7.97
21.22
33.82
45.03
54.55
62.35
68.57
73.33
76.62
78.36
78.48
77.03
74.25
70.53
66.27
61.76
57.10
52.18
46.85
41.08
35.03
29.03
23.46
18.51
14.14
10.08
5.96
1.47
-3.60
-9.34
-15.80
-22.87
-30.21
-37.00
-41.98
-43.75
-41.18
-33.90
-22.41
-8.01
7.68
23.22
37.69
50.67
62.10
72.00
80.31
86.90
91.67
94.70
96.24
96.65
96.24
95.12
93.22
90.35
86.38
81.30
75.34
68.85
62.21
55.74
49.55
43.62
37.79
31.81
25.49
18.64
11.22
3.39
-4.39
-11.36
-16.44
-18.59
-17.00
-11.43
-2.36
9.19
21.93
34.65
46.50
57.06
66.20
73.95
80.33
85.34
88.94
91.18
92.18
92.13
91.25
89.64
87.32
84.14
79.86
74.25
67.18
58.67
48.87
38.01
26.29
13.91
1.00
-12.34
-26.02
-40.03
-54.45
-69.34
-84.63
-99.84
-113.94
-125.50
-133.00
-135.36
-132.38
-124.81
-114.10
-101.83
-89.26
-77.09
-65.54
-54.71
-44.84
-36.43
-30.03
-25.88
-23.75
-22.90
-22.39
-21.48
-19.97
-18.25
-17.10
-17.30
-19.24
-22.76
-27.32
-32.29
-37.23
-42.09
-47.09
-52.58
-58.80
-65.89
-73.85
-82.50
-91.48
-99.99
-106.81
-110.44
-109.53
-103.39
-92.29
-77.52
-60.89
-44.24
-28.90
-15.48
-3.94
6.12
15.17
23.56
31.45
38.92
45.98
52.70
59.15
65.52
71.99
78.75
85.93
93.52
101.35
109.02
116.06
121.93
126.14
128.31
128.12
125.45
120.42
113.41
105.09
96.20
87.30
78.55
69.64
60.01
49.24
37.41
25.35
14.38
5.94
0.97
-0.34
1.37
4.99
9.29
13.33
16.62
19.02
20.62
21.49
21.65
21.00
19.44
16.92
13.51
9.38
4.75
-0.21
-5.32
-10.46
-15.49
-20.27
-24.66
-28.60
-32.18
-35.59
-39.03
-42.62
-46.27
-49.67
-52.51
-54.63
-56.15
-57.36
-58.51
-59.49
-59.63
-57.86
-53.06
-44.60
-32.60
-18.03
-2.39
12.77
26.30
37.60
46.54
53.30
58.07
61.00
62.22
61.93
60.48
58.26
55.71
53.05
50.32
47.33
43.85
39.66
34.71
29.12
23.09
16.83
10.40
3.77
-3.21
-10.67
-18.69
-27.24
-36.25
-45.58
-55.12
-64.76
-74.40
-83.88
-92.91
-100.99
-107.45
-111.53
-112.59
-110.34
-104.95
-97.03
-87.46
-77.16
-66.86
-57.03
-47.94
-39.78
-32.71
-26.86
-22.36
-19.19
-17.20
-16.14
-15.70
-15.60
-15.67
-15.85
-16.19
-16.79
-17.76
-19.10
-20.73
-22.49
-24.22
-25.81
-27.22
-28.44
-29.53
-30.56
-31.67
-33.03
-34.79
-36.96
-39.25
-41.08
-41.61
-40.09
-36.01
-29.42
-20.82
-11.03
-0.95
8.73
17.58
25.42
32.18
37.79
42.15
45.10
46.61
46.77
45.81
44.08
41.89
39.47
36.89
34.17
31.27
28.19
25.04
21.87
18.76
15.68
12.60
9.45
6.27
3.15
0.20
-2.50
-5.06
-7.74
-10.94
-15.02
-20.08
-25.81
-31.44
-35.88
-38.01
-37.01
-32.67
-25.38
-16.08
-5.88
4.18
13.35
21.22
27.65
32.56
35.91
37.64
37.75
36.38
33.72
30.02
25.45
20.15
14.26
7.99
1.66
-4.31
-9.54
-13.78
-17.02
-19.44
-21.31
-22.88
-24.30
-25.60
-26.72
-27.64
-28.39
-29.10
-30.01
-31.48
-33.86
-37.39
-41.97
-47.08
-51.69
-54.53
-54.43
-50.77
-43.66
-33.95
-22.85
-11.54
-0.86
8.77
17.25
24.57
30.73
35.73
39.61
42.50
44.62
46.14
47.13
47.54
47.29
46.32
44.74
42.76
40.61
38.44
36.20
33.66
30.52
26.59
21.90
16.74
11.54
6.72
2.49
-1.19
-4.61
-8.21
-12.48
-17.72
-23.92
-30.66
-37.10
-42.11
-44.64
-44.03
-40.21
-33.81
-25.91
-17.68
-10.07
-3.64
1.46
5.35
8.24
10.32
11.75
12.68
13.26
13.67
14.06
14.54
15.11
15.69
16.15
16.42
16.48
16.42
16.31
16.25
16.20
16.07
15.75
15.12
14.21
13.07
11.90
10.84
9.99
9.32
8.70
7.93
6.82
5.28
3.40
1.46
-0.14
-0.99
-0.77
0.60
2.99
6.11
9.62
13.25
16.79
20.14
23.22
25.96
28.28
30.13
31.45
32.23
32.48
32.16
31.24
29.71
27.56
24.86
21.77
18.43
15.03
11.63
8.26
4.83
1.26
-2.51
-6.47
-10.56
-14.65
-18.63
-22.40
-25.92
-29.26
-32.60
-36.23
-40.44
-45.33
-50.64
-55.70
-59.57
-61.31
-60.38
-56.73
-50.87
-43.61
-35.81
-28.15
-21.09
-14.88
-9.67
-5.53
-2.48
-0.38
0.97
1.86
2.55
3.16
3.63
3.70
3.06
1.48
-1.00
-4.04
-7.04
-9.39
-10.60
-10.57
-9.54
-8.05
-6.69
-5.92
-6.05
-7.19
-9.29
-12.24
-15.81
-19.68
-23.29
-25.94
-26.74
-24.86
-19.72
-11.23
0.05
13.04
26.35
38.67
49.01
56.89
62.25
65.34
66.56
66.36
65.25
63.77
62.40
61.53
61.33
61.77
62.65
63.80
65.16
66.81
68.90
71.52
74.52
77.42
79.53
80.04
78.30
74.02
67.42
59.19
50.27
41.58
33.68
26.60
19.83
12.67
4.65
-4.12
-12.72
-19.71
-23.65
-23.72
-20.09
-13.88
-6.73
-0.15
4.87
7.99
9.27
8.90
6.96
3.60
-0.88
-5.90
-10.70
-14.79
-18.14
-21.20
-24.58
-28.58
-32.91
-36.81
-39.54
-40.85
-41.16
-41.37
-42.35
-44.54
-47.79
-51.64
-55.56
-59.32
-62.90
-66.38
-69.88
-73.45
-77.21
-81.21
-85.37
-89.22
-91.88
-92.26
-89.45
-83.17
-73.92
-62.89
-51.56
-41.22
-32.70
-26.29
-21.87
-19.06
-17.37
-16.18
-14.83
-12.68
-9.30
-4.63
1.01
6.97
12.55
17.19
20.73
23.34
25.46
27.64
30.33
33.82
38.15
43.21
48.73
54.38
59.66
63.95
66.50
66.51
63.37
56.80
47.02
34.80
21.34
8.10
-3.43
-11.96
-16.60
-17.08
-13.77
-7.64
-0.06
7.48
13.74
17.92
19.72
19.48
18.01
16.62
16.79
19.92
26.68
36.55
47.65
56.99
61.45
58.69
47.97
30.39
8.44
-14.71
-35.99
-53.02
-64.35
-69.68
-69.84
-66.71
-62.80
-60.57
-61.68
-66.33
-73.36
-80.70
-86.14
-88.14
-86.16
-80.63
-72.65
-63.54
-54.51
-46.40
-39.66
-34.32
-30.13
-26.71
-23.67
-20.76
-17.86
-15.05
-12.46
-10.30
-8.77
-7.97
-7.84
-8.13
-8.49
-8.56
-8.12
-7.17
-5.93
-4.77
-4.07
-4.17
-5.22
-7.10
-9.41
-11.43
-12.27
-11.08
-7.33
-0.97
7.45
16.94
26.26
34.18
39.78
42.53
42.50
40.23
36.57
32.39
28.30
24.47
20.73
16.85
12.88
9.36
7.19
7.32
10.35
16.24
24.48
34.30
45.03
56.34
68.15
80.46
93.11
105.68
117.57
128.28
137.62
145.99
154.45
164.47
177.53
194.36
214.36
235.44
254.48
268.40
275.16
274.29
266.58
253.13
234.41
210.10
179.73
143.84
104.58
65.38
29.66
-0.50
-25.11
-45.92
-65.50
-86.30
-110.25
-138.73
-172.65
-212.15
-255.99
-301.14
-343.03
-376.80
-398.96
-408.78
-408.55
-402.66
-395.80
-391.15
-389.18
-387.65
-382.64
-370.11
-347.41
-314.12
-271.99
-224.21
-174.40
-125.79
-80.75
-40.75
-6.56
21.61
44.02
61.43
75.02
86.19
96.12
105.44
114.08
121.51
127.11
130.57
132.15
132.41
131.99
131.29
130.27
128.64
125.91
121.62
115.34
106.82
96.02
83.22
69.14
54.80
41.40
29.91
20.90
14.46
10.37
8.35
8.25
10.12
14.01
19.80
26.95
34.60
41.73
47.53
51.68
54.30
55.80
56.47
56.36
55.26
52.95
49.40
44.75
39.16
32.49
24.23
13.72
0.71
-14.33
-30.02
-44.55
-56.39
-64.85
-70.21
-73.43
-75.51
-77.02
-77.85
-77.40
-74.82
-69.42
-60.85
-49.24
-35.25
-19.93
-4.50
9.98
22.87
33.98
43.42
51.24
57.22
60.90
61.95
60.50
57.32
53.63
50.57
48.70
47.76
46.80
44.73
40.81
34.98
27.91
20.73
14.67
10.73
9.28
9.82
10.90
10.39
6.17
-2.98
-16.70
-32.92
-48.44
-60.07
-65.75
-65.10
-59.34
-50.55
-40.84
-31.66
-23.67
-16.93
-11.20
-6.21
-1.83
2.00
5.34
8.23
10.75
12.88
14.58
15.70
16.11
15.77
14.77
13.29
11.62
10.03
8.74
7.79
7.06
6.24
4.95
2.77
-0.54
-5.11
-10.93
-17.98
-26.14
-35.16
-44.47
-53.07
-59.57
-62.49
-60.62
-53.48
-41.51
-26.03
-8.91
7.92
22.91
35.13
44.36
50.92
55.37
58.28
60.06
60.86
60.69
59.57
57.64
55.18
52.59
50.19
48.09
46.12
43.92
41.09
37.48
33.32
29.09
25.43
22.78
21.21
20.33
19.38
17.45
13.68
7.56
-1.03
-11.64
-23.30
-34.65
-44.11
-50.17
-51.72
-48.31
-40.23
-28.53
-14.72
-0.45
12.82
24.11
32.96
39.40
43.76
46.54
48.14
48.88
48.88
48.20
46.98
45.42
43.78
42.38
41.41
40.92
40.81
40.87
40.92
40.82
40.55
40.09
39.35
38.12
36.11
33.15
29.29
25.00
21.04
18.19
17.02
17.61
19.51
22.01
24.57
27.01
29.67
33.23
38.31
45.17
53.43
62.16
70.06
75.92
78.87
78.70
75.76
70.84
64.79
58.24
51.48
44.40
36.74
28.33
19.32
10.25
1.86
-5.16
-10.61
-14.91
-19.09
-24.51
-32.40
-43.68
-58.66
-77.15
-98.37
-121.10
-143.67
-164.32
-181.55
-194.64
-203.85
-210.17
-214.75
-218.18
-220.17
-219.81
-216.22
-209.23
-199.61
-188.79
-178.19
-168.63
-160.12
-152.08
-143.81
-134.93
-125.54
-116.09
-107.10
-98.86
-91.35
-84.42
-78.05
-72.55
-68.47
-66.24
-65.89
-66.89
-68.46
-69.99
-71.45
-73.41
-76.59
-81.36
-87.46
-94.06
-100.05
-104.32
-105.88
-103.95
-98.13
-88.51
-75.85
-61.36
-46.19
-30.99
-15.68
0.29
17.40
35.53
53.88
71.30
86.87
100.21
111.43
120.91
129.02
136.07
142.38
148.34
154.24
160.05
165.24
168.91
170.11
168.33
163.78
157.22
149.69
142.03
134.69
127.65
120.68
113.53
106.14
98.64
91.35
84.77
79.31
75.11
71.93
69.25
66.53
63.49
60.29
57.35
55.20
53.93
53.08
51.81
49.40
45.72
41.35
37.28
34.38
33.27
33.89
35.71
38.11
40.85
44.15
48.55
54.40
61.65
70.47
80.54
91.12
101.25
110.12
117.30
122.77
126.58
128.79
130.94
134.06
138.27
142.84
146.83
149.87
152.49
155.66
160.29
169.14
183.20
200.90
218.55
232.20
239.58
241.33
240.06
239.15
244.36
258.46
279.81
302.89
320.99
328.85
324.56
308.44
262.60
180.57
68.79
-54.53
-168.76
-260.45
-326.59
-371.06
-400.93
-422.32
-435.01
-436.55
-425.02
-401.29
-369.26
-336.74
-308.17
-286.34
-272.16
-262.30
-252.89
-241.32
-226.71
-207.10
-182.68
-154.05
-123.02
-92.22
-62.46
-34.09
-7.95
14.76
33.06
46.31
55.40
61.39
64.97
67.49
70.08
72.58
74.08
73.87
71.06
65.80
58.27
48.14
35.64
21.37
5.09
-13.77
-35.25
-58.28
-79.83
-92.85
-93.52
-83.78
-64.32
-38.67
-12.55
8.35
20.36
23.19
18.85
10.08
0.01
-8.55
-14.34
-17.65
-19.48
-21.26
-21.23
-19.62
-18.29
-18.61
-20.71
-23.60
-26.59
-29.01
-30.44
-30.72
-30.77
-33.12
-39.57
-50.61
-65.05
-82.50
-102.64
-124.75
-147.09
-167.72
-185.90
-200.36
-209.34
-210.02
-201.90
-185.84
-163.65
-137.33
-100.50
-52.66
1.82
48.83
88.22
124.35
162.92
205.19
249.05
289.38
318.80
331.58
325.49
303.34
269.18
227.97
184.79
144.18
108.22
75.79
44.35
11.20
-24.28
-61.77
-98.92
-131.31
-153.66
-163.40
-161.86
-153.35
-143.35
-135.27
-130.17
-127.18
-124.77
-122.54
-123.17
-129.46
-141.60
-155.70
-164.49
-160.86
-142.03
-110.69
-65.86
-13.74
37.20
79.83
109.61
121.79
115.52
90.70
50.26
1.70
-43.17
-71.12
-73.65
-51.52
-14.55
23.11
49.15
58.51
55.58
48.81
47.68
56.26
70.75
83.37
88.50
85.23
77.73
70.42
64.71
59.42
51.57
38.34
20.20
0.28
-15.09
-20.91
-15.77
-3.12
10.83
19.76
19.97
11.72
-1.52
-15.05
-25.18
-30.14
-30.13
-26.27
-19.91
-12.51
-5.59
-0.92
-0.27
-5.36
-15.55
-28.68
-41.51
-50.88
-54.86
-53.27
-47.39
-39.10
-30.17
-21.61
-13.99
-7.58
-2.72
0.07
0.44
-1.61
-5.55
-10.56
-15.28
-18.75
-20.35
-20.07
-18.47
-16.61
-15.67
-16.54
-19.60
-24.60
-31.00
-37.94
-44.51
-49.63
-52.30
-51.66
-47.26
-39.30
-28.61
-16.40
-3.78
8.52
20.09
30.54
39.20
45.10
47.39
45.89
41.44
35.86
31.27
29.24
30.20
33.28
36.93
39.66
40.70
40.15
38.65
36.85
34.96
32.74
29.80
25.86
21.04
15.81
10.69
6.05
1.94
-1.82
-5.44
-8.98
-12.41
-15.61
-18.67
-21.92
-25.82
-30.72
-36.53
-42.57
-47.77
-51.03
-51.61
-49.31
-44.35
-37.11
-27.93
-17.00
-4.58
8.88
22.62
35.70
46.96
55.16
59.05
57.80
51.50
41.51
30.40
21.19
16.09
15.53
17.84
20.05
19.14
13.34
2.57
-11.94
-28.45
-45.44
-61.70
-76.06
-87.22
-93.76
-94.77
-90.46
-82.41
-73.22
-65.55
-61.09
-59.85
-60.10
-59.09
-54.18
-43.80
-27.97
-8.04
13.90
35.89
56.59
75.27
91.43
104.17
111.89
112.47
104.14
86.63
61.74
33.22
5.50
-17.76
-34.81
-45.97
-52.68
-56.28
-57.12
-54.65
-48.31
-38.64
-27.74
-18.80
-14.91
-17.78
-27.11
-40.56
-54.64
-65.76
-71.20
-69.58
-60.88
-46.02
-26.28
-3.18
21.71
46.58
69.57
89.17
104.69
116.45
125.50
132.76
138.18
140.57
138.40
130.97
119.41
106.42
95.04
87.02
81.93
77.50
71.08
60.96
47.00
30.27
12.10
-6.68
-25.82
-45.14
-63.88
-80.45
-93.10
-100.82
-103.94
-104.10
-103.70
-104.97
-109.24
-116.41
-124.58
-131.06
-133.20
-129.27
-119.01
-103.51
-84.76
-64.99
-45.89
-27.37
-8.88
9.93
28.82
47.10
64.06
79.32
92.72
104.76
118.03
134.49
154.66
177.36
200.37
221.45
239.20
252.76
262.90
274.10
289.90
311.44
336.84
362.40
384.39
400.45
409.11
411.29
412.66
417.70
428.02
441.97
456.19
467.50
474.29
475.00
443.86
367.24
246.46
99.04
-51.01
-184.82
-293.46
-371.51
-427.85
-469.47
-496.80
-509.95
-510.90
-504.61
-495.40
-486.73
-476.20
-460.80
-436.33
-398.37
-346.95
-286.35
-223.80
-166.95
-121.74
-90.91
-75.65
-73.38
-77.59
-80.62
-74.74
-54.51
-18.80
27.98
77.84
119.34
143.99
149.24
138.63
119.99
101.08
85.67
72.42
56.35
31.71
-2.63
-42.60
-80.16
-106.08
-113.85
-102.33
-75.94
-40.29
-4.46
23.26
36.48
30.79
7.78
-25.23
-59.43
-88.71
-111.47
-132.56
-152.82
-170.60
-183.50
-189.84
-190.31
-188.22
-184.19
-180.08
-176.83
-173.12
-167.23
-157.75
-144.08
-126.98
-108.46
-90.91
-76.68
-66.91
-60.69
-56.46
-52.50
-47.42
-40.64
-32.53
-23.92
-15.87
-8.71
-1.68
6.12
15.41
26.58
39.61
54.23
70.31
87.61
105.97
125.06
143.82
160.66
174.02
183.02
187.73
189.12
188.33
186.30
183.44
179.56
174.40
167.98
160.81
153.70
147.43
142.35
138.45
135.40
132.81
130.34
127.65
124.35
119.90
113.70
105.39
95.08
83.54
72.06
62.17
55.02
50.95
49.15
47.84
44.90
38.67
28.54
15.11
-0.27
-16.15
-31.54
-46.04
-59.57
-72.05
-83.03
-91.89
-98.09
-101.44
-102.14
-100.60
-97.19
-92.20
-85.85
-78.36
-70.03
-61.18
-52.04
-42.86
-33.93
-25.69
-18.74
-13.71
-11.17
-11.39
-14.29
-19.43
-26.10
-33.51
-41.08
-48.71
-56.96
-66.82
-79.18
-94.22
-110.96
-127.25
-140.29
-147.40
-146.86
-138.41
-123.28
-103.76
-82.53
-61.90
-43.39
-27.60
-14.49
-3.82
4.52
10.43
13.72
14.44
13.00
10.11
6.47
2.55
-1.67
-6.48
-12.24
-19.05
-26.63
-34.41
-41.82
-48.66
-55.28
-62.52
-71.37
-82.42
-95.40
-109.04
-121.34
-130.26
-134.41
-133.54
-128.46
-120.56
-111.22
-101.35
-91.25
-80.93
-70.35
-59.64
-48.97
-38.43
-27.86
-16.93
-5.39
6.65
18.66
29.84
39.50
47.28
53.28
57.79
61.00
62.68
62.16
58.65
51.63
41.13
27.95
13.37
-1.09
-13.97
-23.97
-30.05
-31.42
-27.68
-19.02
-6.33
8.86
24.71
39.44
51.73
60.93
66.96
70.13
70.92
69.72
66.85
62.49
56.79
49.95
42.17
33.74
24.93
15.97
6.99
-2.02
-11.14
-20.51
-30.31
-40.65
-51.63
-63.13
-74.75
-85.64
-94.50
-99.79
-100.21
-95.07
-84.52
-69.55
-51.57
-32.15
-12.69
5.69
22.13
36.03
47.03
55.05
60.26
63.08
63.94
63.25
61.36
58.47
54.80
50.52
45.82
40.88
35.94
31.18
26.73
22.51
18.18
13.16
6.73
-1.59
-11.72
-22.74
-32.95
-40.24
-42.75
-39.48
-30.61
-17.41
-1.78
14.42
29.85
43.77
55.94
66.20
74.32
80.03
83.10
83.62
81.98
78.69
74.13
68.49
61.76
53.99
45.47
36.78
28.54
21.24
14.98
9.45
4.05
-1.93
-9.07
-17.68
-27.70
-38.55
-49.11
-57.78
-62.88
-63.16
-58.19
-48.60
-35.77
-21.36
-6.66
7.61
21.28
34.34
46.62
57.61
66.63
73.15
77.01
78.47
78.07
76.28
73.33
69.22
63.90
57.43
50.18
42.72
35.77
29.88
25.32
21.96
19.23
16.32
12.40
6.93
-0.08
-7.94
-15.25
-20.24
-21.19
-17.00
-7.54
6.27
22.72
39.92
56.30
71.01
83.89
95.14
104.85
112.72
118.12
120.37
119.16
114.74
107.95
99.87
91.46
83.22
75.18
67.09
58.73
50.21
42.00
34.75
29.05
25.12
22.81
21.68
21.25
21.03
20.54
19.22
16.45
11.78
5.20
-2.51
-9.87
-15.18
-17.10
-15.22
-10.11
-3.09
4.43
11.45
17.58
22.93
27.74
32.07
35.71
38.27
39.45
39.16
37.56
35.00
31.88
28.56
25.29
22.15
19.02
15.56
11.27
5.68
-1.50
-10.19
-19.98
-30.31
-40.65
-50.79
-60.80
-71.03
-81.79
-93.21
-104.99
-116.45
-126.62
-134.43
-138.98
-139.57
-135.73
-127.21
-114.03
-96.68
-76.14
-53.99
-31.94
-11.47
6.59
22.05
35.00
45.30
52.27
55.02
52.97
46.44
36.85
26.15
16.14
7.77
1.03
-4.74
-10.26
-15.93
-21.79
-27.64
-33.28
-38.45
-42.74
-45.47
-45.89
-43.47
-38.33
-31.37
-24.04
-17.92
-14.23
-13.56
-15.86
-20.54
-26.64
-32.84
-37.60
-39.29
-36.69
-29.36
-17.96
-4.13
10.04
22.65
32.52
39.37
43.57
45.69
46.16
45.14
42.64
38.79
33.97
28.78
23.87
19.73
16.54
14.27
12.71
11.66
11.00
10.62
10.42
10.21
9.72
8.66
6.90
4.43
1.40
-1.95
-5.45
-9.07
-12.95
-17.35
-22.64
-29.12
-36.92
-45.84
-55.21
-63.95
-70.73
-74.31
-73.87
-69.26
-60.95
-49.88
-37.08
-23.35
-9.09
5.73
21.36
37.95
55.30
72.66
88.85
102.58
112.87
119.44
122.75
123.75
123.44
122.43
120.77
118.03
113.63
107.11
98.22
87.02
73.81
59.16
43.96
29.35
16.47
6.08
-1.77
-7.83
-13.38
-19.65
-27.23
-35.56
-43.06
-47.61
-47.39
-41.59
-30.83
-16.85
-1.84
12.33
24.69
35.18
44.16
51.88
58.04
61.87
62.55
59.74
53.91
46.20
38.07
30.78
25.02
20.79
17.65
15.00
12.36
9.47
6.24
2.56
-1.76
-7.00
-13.36
-20.82
-29.06
-37.44
-45.24
-51.82
-56.91
-60.69
-63.83
-67.22
-71.58
-77.02
-82.74
-87.12
-88.08
-83.84
-73.53
-57.56
-37.50
-15.62
5.83
25.08
41.20
54.00
63.85
71.35
77.13
81.63
85.14
87.72
89.31
89.80
89.09
87.25
84.54
81.48
78.72
77.01
76.99
79.11
83.60
90.37
99.07
109.04
119.43
129.26
137.65
143.87
147.48
148.17
145.78
140.17
131.35
119.53
105.28
89.42
72.73
55.69
38.37
20.52
2.01
-16.83
-35.03
-51.24
-64.15
-73.07
-78.13
-80.26
-80.72
-80.78
-81.23
-82.35
-83.77
-84.60
-83.60
-79.57
-71.85
-60.79
-47.89
-35.55
-26.26
-21.86
-22.95
-29.01
-38.95
-51.82
-67.19
-85.05
-105.44
-127.97
-151.73
-175.44
-197.81
-217.74
-234.28
-246.33
-252.66
-252.02
-243.68
-227.94
-206.37
-181.52
-156.29
-133.13
-113.47
-97.56
-84.73
-73.82
-63.69
-53.57
-43.08
-32.18
-21.00
-9.77
1.22
11.72
21.52
30.60
39.01
47.01
55.00
63.38
72.43
82.03
91.61
100.32
107.31
111.93
114.14
114.63
114.56
115.25
117.73
122.49
129.59
138.87
149.69
161.58
174.29
187.67
201.33
214.38
225.05
231.23
231.02
222.42
204.88
179.63
149.44
117.56
86.48
56.34
25.46
-9.07
-51.60
-104.93
-168.98
-240.08
-311.92
-377.10
-430.16
-467.89
-489.87
-499.85
-502.17
-500.03
-494.27
-483.69
-466.12
-440.80
-407.67
-356.71
-284.38
-194.65
-99.22
-11.70
57.03
109.35
149.70
181.78
208.13
226.48
235.42
235.40
228.96
219.84
211.52
204.95
199.53
194.03
185.83
173.57
157.49
139.45
121.98
107.20
95.23
85.23
76.04
65.78
53.40
38.83
22.89
6.80
-8.39
-22.58
-35.71
-47.38
-57.07
-63.73
-66.30
-64.00
-56.83
-45.62
-32.05
-17.89
-4.53
7.00
16.28
23.23
28.00
30.81
31.95
31.64
30.12
27.70
24.65
21.19
17.46
13.51
9.41
5.24
1.12
-2.85
-6.58
-10.00
-13.09
-15.89
-18.50
-21.10
-24.00
-27.50
-31.80
-36.80
-41.95
-46.32
-48.74
-48.13
-43.84
-35.94
-25.19
-12.77
0.08
12.41
23.66
33.57
41.91
48.35
52.46
53.91
52.72
49.37
44.63
39.34
34.10
29.17
24.46
19.72
14.72
9.55
4.65
0.68
-1.77
-2.47
-1.74
-0.39
0.38
-0.49
-3.37
-7.72
-12.28
-15.49
-15.97
-13.04
-6.88
1.49
10.56
19.03
26.22
32.01
36.81
41.33
46.01
50.81
54.62
55.36
50.70
38.93
19.67
-5.68
-33.86
-59.99
-77.68
-82.12
-73.19
-55.95
-37.63
-23.82
-17.36
-15.89
-15.63
-13.30
-7.41
1.63
12.19
22.96
32.05
37.68
38.83
35.33
28.40
20.37
14.37
13.29
18.80
30.35
44.95
58.13
64.99
62.21
49.24
28.86
6.78
-10.05
-15.38
-5.94
17.32
48.97
80.82
104.33
112.97
103.61
76.71
36.07
-12.04
-59.88
-99.23
-122.53
-124.60
-104.38
-66.54
-21.31
18.68
41.67
40.01
12.17
-36.61
-95.24
-149.05
-184.11
-191.51
-168.73
-121.00
-60.58
-3.42
35.50
46.76
29.44
-10.62
-63.61
-116.80
-157.72
-177.14
-171.11
-141.99
-97.67
-49.55
-4.88
24.55
30.79
15.11
-12.45
-38.72
-53.72
-58.57
-54.12
-43.82
-32.75
-24.21
-19.31
-17.85
-16.19
-12.80
-6.65
3.89
19.65
40.26
64.54
88.96
107.72
115.15
108.70
91.90
73.50
62.23
62.46
72.31
84.15
88.38
77.50
50.84
16.02
-16.18
-41.14
-60.06
-75.90
-90.59
-104.07
-112.56
-113.49
-106.21
-92.49
-76.11
-60.55
-47.61
-37.30
-28.18
-18.36
-6.90
5.81
17.77
26.02
28.28
23.88
13.97
1.27
-10.66
-18.68
-20.75
-16.63
-7.75
3.71
15.53
25.97
34.22
40.44
45.38
49.99
54.83
59.75
64.17
67.32
68.63
68.00
65.77
62.33
57.95
52.62
46.34
39.31
31.97
24.67
17.17
8.60
-2.24
-16.05
-32.38
-49.49
-64.98
-76.81
-84.33
-88.45
-91.10
-94.12
-98.27
-102.88
-106.19
-106.12
-101.08
-90.36
-74.15
-53.30
-29.15
-3.38
22.06
45.19
64.42
78.84
88.46
94.05
96.71
97.42
96.84
95.35
93.24
90.79
88.11
85.04
80.99
75.20
67.04
56.32
43.46
29.43
15.33
2.01
-10.14
-21.08
-30.81
-39.38
-46.95
-53.73
-59.79
-64.77
-67.68
-66.92
-60.75
-47.43
-26.38
1.36
33.40
66.82
99.12
128.73
155.00
177.70
197.28
213.75
226.57
234.92
238.27
236.46
229.62
217.96
201.65
182.05
160.99
140.29
121.39
105.10
91.31
79.26
68.15
52.35
30.22
3.65
-23.20
-46.30
-63.36
-74.04
-78.77
-77.97
-71.90
-61.20
-47.36
-32.86
-20.44
-11.83
-7.90
-9.10
-16.44
-32.84
-60.09
-97.51
-143.65
-197.63
-255.44
-311.74
-360.92
-398.08
-420.18
-424.58
-409.78
-376.25
-327.00
-266.70
-201.21
-136.67
-74.94
-20.65
22.70
54.26
78.99
102.29
127.17
154.23
182.12
208.34
229.98
245.72
255.85
261.40
262.75
259.78
252.04
239.33
222.51
203.24
184.24
167.83
154.48
142.14
127.54
108.05
82.97
53.93
23.79
-4.23
-27.93
-46.92
-62.62
-77.28
-93.18
-112.31
-136.41
-167.08
-205.44
-251.46
-303.12
-355.95
-402.94
-435.93
-447.98
-435.79
-401.18
-350.49
-292.41
-235.27
-184.75
-143.15
-110.14
-84.46
-65.31
-52.70
-46.77
-46.84
-50.67
-54.74
-55.21
-49.23
-36.00
-16.71
6.19
30.29
54.16
77.53
100.50
122.52
141.81
155.65
161.51
158.44
147.65
132.20
115.79
101.39
90.45
82.82
77.43
73.14
69.35
66.03
63.34
61.13
58.64
54.71
48.19
38.64
26.63
13.72
1.91
-7.00
-11.94
-12.87
-10.51
-5.94
-0.16
6.19
12.80
19.55
26.27
32.65
38.27
42.73
45.85
47.69
48.62
49.12
49.58
50.16
50.68
50.75
49.92
47.97
44.97
41.34
37.64
34.35
31.69
29.51
27.39
24.80
21.30
16.61
10.63
3.48
-4.55
-12.80
-20.24
-25.59
-27.57
-25.43
-19.18
-9.71
1.51
12.91
23.24
31.86
38.64
43.77
47.49
49.98
51.30
51.49
50.58
48.68
45.88
42.27
37.98
33.17
28.08
22.97
18.14
13.81
10.07
6.93
4.33
2.24
0.69
-0.23
-0.45
-0.12
0.44
0.67
-0.01
-1.98
-5.18
-9.18
-13.19
-16.38
-18.15
-18.27
-16.91
-14.50
-11.49
-8.24
-4.92
-1.60
1.66
4.74
7.43
9.52
10.89
11.49
11.39
10.68
9.41
7.60
5.28
2.52
-0.49
-3.46
-6.07
-7.98
-8.99
-8.96
-8.00
-6.36
-4.55
-3.13
-2.70
-3.65
-6.10
-9.90
-14.61
-19.66
-24.32
-27.84
-29.49
-28.70
-25.18
-19.03
-10.79
-1.35
8.27
17.10
24.43
29.94
33.65
35.81
36.71
36.65
35.84
34.44
32.66
30.73
28.91
27.35
26.04
24.84
23.50
21.85
19.89
17.85
16.03
14.74
14.06
13.84
13.80
13.60
13.01
11.91
10.36
8.51
6.61
5.09
4.46
5.30
8.01
12.63
18.71
25.38
31.61
36.54
39.73
41.21
41.30
40.43
38.89
36.76
33.98
30.48
26.27
21.49
16.41
11.35
6.59
2.29
-1.56
-5.11
-8.63
-12.38
-16.48
-20.92
-25.52
-30.02
-34.16
-37.71
-40.55
-42.64
-44.09
-45.13
-46.04
-47.01
-48.02
-48.79
-48.88
-47.86
-45.52
-41.93
-37.41
-32.37
-27.20
-22.09
-17.20
-12.60
-8.42
-4.77
-1.74
0.65
2.48
3.88
5.02
5.99
6.84
7.56
8.11
8.42
8.46
8.22
7.74
7.08
6.36
5.74
5.35
5.23
5.33
5.52
5.60
5.39
4.77
3.65
2.11
0.33
-1.34
-2.49
-2.70
-1.71
0.48
3.58
7.11
10.55
13.49
15.67
16.98
17.40
16.98
15.87
14.29
12.51
10.82
9.42
8.37
7.60
7.00
6.49
6.08
5.87
5.99
6.53
7.49
8.74
10.14
11.54
12.91
14.31
15.87
17.69
19.74
21.90
23.89
25.50
26.57
27.17
27.54
28.00
28.90
30.45
32.66
35.39
38.43
41.55
44.54
47.26
49.58
51.40
52.72
53.66
54.42
55.25
56.31
57.55
58.64
59.03
58.15
55.50
50.84
44.26
36.12
26.99
17.53
8.34
-0.07
-7.40
-13.56
-18.58
-22.55
-25.62
-27.93
-29.67
-31.01
-32.12
-33.12
-34.10
-35.08
-35.99
-36.72
-37.07
-36.74
-35.42
-32.74
-28.45
-22.48
-15.04
-6.69
1.80
9.69
16.55
22.47
28.08
34.34
42.05
51.42
61.75
71.43
78.37
80.55
76.65
66.45
50.85
31.57
10.71
-9.83
-28.64
-44.93
-58.45
-69.29
-77.76
-84.34
-89.68
-94.51
-99.37
-104.44
-109.34
-113.31
-115.49
-115.28
-112.66
-108.10
-102.36
-96.20
-90.13
-84.36
-78.90
-73.74
-68.89
-64.47
-60.55
-57.19
-54.36
-52.04
-50.27
-49.11
-48.56
-48.52
-48.70
-48.70
-48.14
-46.83
-44.81
-42.33
-39.70
-37.14
-34.67
-32.17
-29.42
-26.34
-23.01
-19.68
-16.63
-14.07
-11.95
-9.96
-7.59
-4.37
-0.12
4.99
10.46
15.73
20.48
24.82
29.30
34.59
41.12
48.69
56.48
63.29
68.15
70.72
71.64
72.29
74.27
78.67
85.62
94.11
102.46
109.03
112.92
114.30
114.26
114.15
115.24
118.30
123.39
129.86
136.17
139.48
135.73
120.70
92.59
54.48
14.99
-14.22
-23.45
-9.64
21.73
58.93
89.15
104.10
102.27
87.17
63.66
35.02
3.00
-30.21
-60.23
-82.01
-92.12
-91.74
-87.35
-88.37
-102.89
-134.19
-179.33
-230.70
-281.09
-325.12
-360.16
-385.40
-400.78
-406.38
-402.34
-389.03
-367.84
-344.13
-324.42
-314.07
-313.97
-319.65
-323.27
-317.06
-296.89
-264.21
-228.56
-200.84
-188.67
-192.54
-207.22
-226.13
-244.84
-261.75
-256.80
-215.89
-134.28
-21.30
105.01
227.09
332.62
415.08
472.69
506.95
518.48
512.35
491.60
460.92
426.86
395.48
370.92
355.01
346.90
341.53
332.49
313.95
281.85
237.43
185.05
130.61
80.31
38.68
10.18
-1.81
2.68
20.22
45.70
73.75
99.85
120.73
132.99
134.78
124.92
103.65
73.32
37.17
-3.23
-49.18
-96.65
-141.61
-179.92
-209.61
-231.33
-246.48
-254.77
-253.27
-237.39
-203.71
-154.95
-100.26
-53.03
-24.79
-19.29
-30.31
-45.07
-51.05
-41.74
-20.15
5.08
25.21
36.32
40.28
41.95
45.12
49.12
52.60
53.58
52.10
50.62
52.43
59.60
71.43
84.62
94.71
98.67
95.63
87.66
78.81
73.44
74.66
83.28
97.59
113.98
128.68
138.62
142.65
141.68
137.91
133.58
130.10
129.20
131.14
135.62
141.78
148.50
154.51
158.48
159.27
156.30
149.88
140.52
128.86
114.97
98.30
77.98
53.47
24.50
-8.45
-44.10
-80.85
-116.87
-150.44
-180.22
-205.88
-228.48
-251.38
-277.63
-307.56
-337.00
-357.42
-358.51
-331.97
-274.46
-188.58
-84.12
26.81
132.78
224.54
295.31
340.27
356.85
345.67
310.96
256.00
185.35
103.82
15.88
-74.76
-165.53
-255.06
-342.51
-427.00
-512.15
-600.17
-690.16
-777.38
-854.86
-916.13
-957.48
-978.22
-950.30
-857.84
-700.54
-497.59
-279.58
-74.68
99.98
238.35
341.69
414.81
458.96
476.76
472.61
453.15
425.78
396.35
367.75
340.02
312.71
278.78
232.76
173.41
105.24
37.50
-19.19
-56.89
-72.96
-70.56
-59.37
-49.18
-46.38
-51.85
-61.99
-71.67
-77.09
-76.79
-71.44
-63.76
-55.60
-47.48
-38.92
-29.30
-18.82
-8.51
0.19
6.40
9.72
10.97
11.54
12.85
15.67
19.83
24.42
28.27
30.50
30.87
29.87
28.27
26.76
25.56
24.47
23.03
20.79
17.66
13.96
10.39
7.77
6.73
7.56
10.09
13.89
18.39
23.18
28.06
33.11
38.58
44.73
51.69
59.41
67.66
76.19
84.84
93.66
102.86
112.69
123.24
134.22
144.98
154.53
161.89
166.35
167.74
166.45
163.29
159.15
154.78
150.56
146.62
142.98
139.73
137.20
135.89
136.53
140.12
147.95
161.33
180.74
204.87
230.03
250.44
259.96
254.16
232.15
196.82
153.53
107.87
63.69
22.35
-16.67
-54.42
-91.31
-126.98
-160.74
-192.17
-221.11
-247.18
-269.20
-285.19
-293.06
-291.55
-280.98
-263.19
-240.62
-215.10
-187.04
-155.57
-119.58
-79.18
-36.60
3.98
37.70
60.83
72.02
72.58
65.60
54.65
42.43
30.24
18.17
5.79
-7.36
-21.47
-36.25
-51.08
-65.20
-78.03
-89.41
-99.56
-108.75
-116.77
-122.61
-124.63
-121.26
-111.79
-96.79
-77.96
-57.42
-36.81
-17.14
1.06
17.21
30.30
39.09
42.77
41.74
37.98
34.64
34.91
40.66
51.56
65.34
78.93
89.98
97.91
103.79
109.36
115.78
122.87
129.35
133.78
135.51
134.92
132.97
130.31
126.56
120.41
110.38
95.82
77.39
57.33
38.65
24.12
15.24
11.68
11.56
12.28
11.64
8.63
3.64
-1.90
-6.30
-8.37
-7.73
-4.70
0.16
6.44
13.98
22.80
32.81
43.62
54.81
66.30
78.66
92.86
109.58
128.20
146.30
160.06
165.70
161.22
147.38
127.61
106.50
87.97
73.85
63.64
55.23
46.29
35.24
21.56
5.40
-13.13
-34.18
-58.16
-85.26
-115.11
-146.85
-179.48
-212.45
-246.06
-281.30
-319.14
-359.83
-402.26
-444.28
-483.21
-516.56
-542.35
-559.03
-565.07
-558.87
-539.04
-505.13
-458.37
-401.97
-340.53
-278.72
-219.67
-163.85
-109.00
-51.22
13.25
86.31
167.03
251.62
334.44
409.26
470.74
515.23
541.25
549.58
543.00
525.67
502.24
476.86
452.38
430.06
409.66
390.16
370.30
349.20
326.52
302.51
277.78
252.95
228.47
204.51
181.07
158.27
136.49
116.47
99.12
85.19
74.97
67.96
62.88
57.93
51.28
41.61
28.32
11.48
-8.58
-31.65
-57.70
-86.56
-117.35
-148.01
-175.38
-195.93
-206.94
-207.45
-198.63
-183.23
-164.39
-144.46
-124.31
-103.58
-81.52
-57.90
-33.46
-9.71
11.78
29.98
44.70
56.35
65.52
72.70
78.25
82.51
85.82
88.31
89.47
87.84
81.39
68.34
48.34
23.27
-2.67
-23.99
-35.79
-35.86
-26.02
-11.81
-0.69
0.77
-10.84
-34.80
-67.13
-102.53
-136.33
-165.76
-189.76
-208.40
-222.00
-230.88
-235.63
-237.59
-239.15
-243.43
-253.10
-268.94
-288.69
-307.04
-316.96
-312.08
-288.99
-248.32
-194.17
-132.43
-68.73
-6.89
51.48
106.27
157.55
204.54
245.20
276.80
296.90
304.53
300.74
288.34
270.87
251.18
230.56
208.99
186.27
163.59
144.00
131.43
128.47
134.19
143.60
149.11
143.70
124.11
92.52
55.84
22.68
-0.23
-10.44
-10.04
-3.78
3.52
8.86
11.56
12.26
11.59
9.20
3.83
-5.90
-20.53
-39.13
-59.56
-79.34
-96.59
-110.64
-121.83
-130.85
-137.91
-142.23
-142.27
-136.32
-123.52
-104.57
-81.91
-59.02
-39.19
-24.21
-13.60
-4.71
6.06
21.73
43.23
68.84
94.88
116.98
131.73
137.57
134.90
125.43
111.32
94.45
76.20
57.47
38.98
21.36
5.24
-8.95
-21.11
-31.46
-40.49
-48.76
-56.85
-65.21
-74.02
-83.17
-92.26
-100.95
-109.25
-117.88
-128.08
-140.89
-156.33
-172.76
-187.14
-196.10
-197.35
-190.56
-177.39
-160.52
-142.59
-125.35
-109.76
-96.38
-85.90
-78.99
-75.54
-73.98
-71.10
-63.02
-46.99
-23.05
5.16
31.31
48.44
51.65
39.92
16.53
-12.15
-38.90
-58.04
-66.89
-66.04
-58.38
-47.79
-37.74
-30.59
-27.43
-28.31
-32.47
-38.50
-44.44
-47.98
-47.02
-40.32
-27.94
-11.32
7.20
25.16
40.64
52.59
60.74
65.43
67.31
67.12
65.69
63.73
61.72
59.86
58.09
56.15
53.79
50.81
47.08
42.50
36.95
30.31
22.56
13.81
4.36
-5.47
-15.48
-25.70
-36.42
-47.96
-60.34
-72.97
-84.62
-93.63
-98.46
-98.18
-92.83
-83.34
-71.23
-58.13
-45.37
-33.78
-23.74
-15.28
-8.20
-2.26
2.76
6.97
10.41
13.12
15.27
17.24
19.56
22.72
26.80
31.30
35.24
37.45
37.08
33.99
28.97
23.42
18.91
16.54
16.55
18.31
20.55
21.89
21.18
17.78
11.78
4.06
-3.80
-9.78
-11.95
-9.13
-1.36
10.10
23.22
35.99
47.12
56.28
63.82
70.18
75.45
79.25
80.99
80.42
77.94
74.78
72.61
73.07
77.01
84.09
92.70
100.46
105.06
105.06
100.34
91.93
81.47
70.41
59.65
49.55
40.22
31.83
24.66
18.85
14.13
9.79
5.03
-0.49
-6.22
-10.82
-12.63
-10.49
-4.29
4.96
15.53
25.77
34.61
41.75
47.45
52.02
55.65
58.30
59.90
60.46
60.10
58.86
56.64
53.27
48.67
43.00
36.72
30.32
24.12
18.16
12.22
6.13
-0.06
-6.07
-11.51
-16.13
-19.96
-23.26
-26.38
-29.62
-33.18
-37.06
-41.08
-44.81
-47.53
-48.35
-46.50
-41.66
-34.20
-25.09
-15.60
-6.76
0.88
7.36
13.04
18.26
23.08
27.18
30.05
31.25
30.67
28.61
25.81
23.21
21.74
22.00
24.07
27.46
31.18
34.14
35.44
34.59
31.67
27.18
21.90
16.74
12.45
9.48
7.82
6.89
5.68
3.10
-1.67
-8.75
-17.44
-26.35
-33.80
-38.34
-39.10
-36.01
-29.80
-21.66
-12.93
-4.71
2.33
8.00
12.42
15.78
18.25
19.91
20.87
21.36
21.81
22.78
24.87
28.54
33.98
40.90
48.44
55.21
59.56
60.05
55.87
47.18
35.09
21.36
7.95
-3.43
-11.59
-16.04
-16.94
-15.05
-11.58
-7.90
-5.28
-4.54
-5.92
-8.98
-12.82
-16.35
-18.59
-18.97
-17.45
-14.46
-10.77
-7.25
-4.61
-3.24
-3.13
-3.89
-5.00
-5.96
-6.47
-6.45
-5.91
-4.83
-3.05
-0.40
3.21
7.58
12.25
16.58
20.10
22.63
24.33
25.54
26.44
26.94
26.62
24.89
21.26
15.63
8.33
0.03
-8.62
-17.25
-25.97
-35.19
-45.31
-56.23
-67.15
-76.68
-83.33
-86.09
-84.83
-80.35
-73.98
-67.13
-60.74
-55.17
-50.35
-46.08
-42.26
-39.02
-36.59
-35.05
-34.24
-33.77
-33.12
-31.90
-29.96
-27.40
-24.39
-21.03
-17.25
-12.87
-7.75
-1.91
4.38
10.75
16.84
22.41
27.33
31.50
34.71
36.65
36.86
34.99
30.88
24.77
17.32
9.57
2.72
-2.11
-4.04
-2.61
2.22
10.09
20.22
31.41
42.19
51.02
56.66
58.51
56.79
52.37
46.49
40.30
34.59
29.69
25.57
22.02
18.84
15.84
12.91
10.02
7.22
4.67
2.59
1.24
0.78
1.26
2.54
4.34
6.30
7.99
9.04
9.15
8.17
6.17
3.45
0.50
-2.25
-4.62
-6.85
-9.51
-13.19
-18.21
-24.32
-30.75
-36.50
-40.65
-42.62
-42.25
-39.70
-35.30
-29.46
-22.66
-15.44
-8.37
-1.97
3.44
7.72
10.96
13.44
15.55
17.74
20.34
23.47
26.83
29.82
31.62
31.50
29.04
24.26
17.58
9.59
0.84
-8.19
-17.15
-25.69
-33.39
-39.80
-44.57
-47.56
-48.87
-48.80
-47.83
-46.41
-45.00
-43.99
-43.61
-43.97
-44.96
-46.30
-47.64
-48.64
-49.07
-48.88
-48.11
-46.91
-45.45
-43.84
-42.02
-39.69
-36.28
-31.09
-23.64
-14.01
-3.05
7.75
16.73
22.75
25.70
26.59
27.06
28.64
32.06
36.97
42.27
46.65
49.21
49.60
48.02
44.79
40.18
34.34
27.46
19.96
12.53
5.92
0.66
-3.12
-5.73
-7.67
-9.41
-11.09
-12.52
-13.22
-12.74
-10.89
-7.92
-4.49
-1.40
0.65
1.42
1.17
0.55
0.30
1.04
3.00
6.11
10.01
14.23
18.40
22.35
26.28
30.74
36.56
44.53
55.17
68.39
83.44
99.03
113.60
125.60
133.78
137.26
135.63
128.88
117.46
102.26
84.67
66.46
49.53
35.61
25.86
20.76
20.11
23.39
29.95
39.15
50.27
62.35
74.05
83.72
89.73
90.85
86.57
77.26
64.18
49.22
34.63
22.63
15.02
12.77
15.72
22.49
30.67
37.32
39.58
35.34
23.79
5.55
-17.47
-42.57
-67.00
-88.65
-106.35
-120.03
-130.30
-137.98
-143.67
-147.56
-149.40
-148.82
-145.63
-140.12
-133.09
-125.74
-119.36
-114.97
-113.09
-113.58
-115.71
-118.37
-120.36
-120.71
-118.86
-114.71
-108.66
-101.52
-94.30
-87.91
-82.80
-78.74
-74.80
-69.79
-62.70
-53.21
-41.78
-29.42
-17.22
-6.00
3.78
11.98
18.55
23.48
26.78
28.53
28.89
28.10
26.40
24.04
21.47
19.26
18.06
18.38
20.45
24.06
28.66
33.59
38.30
42.52
46.31
49.96
53.77
57.87
62.07
65.92
68.87
70.53
70.84
70.01
68.42
66.26
63.44
59.64
54.57
48.33
41.50
35.04
29.88
26.63
25.43
26.00
27.93
30.86
34.50
38.41
41.80
43.45
42.02
36.46
26.55
13.05
-2.48
-18.14
-32.19
-43.47
-51.49
-56.25
-58.03
-57.14
-53.95
-48.90
-42.61
-35.87
-29.57
-24.52
-21.33
-20.32
-21.54
-24.80
-29.72
-35.74
-42.19
-48.28
-53.26
-56.48
-57.58
-56.52
-53.55
-49.10
-43.63
-37.54
-31.17
-24.93
-19.41
-15.24
-12.93
-12.58
-13.73
-15.52
-17.00
-17.53
-17.04
-15.89
-14.61
-13.55
-12.76
-12.04
-11.19
-10.22
-9.42
-9.16
-9.70
-11.00
-12.65
-14.06
-14.69
-14.25
-12.79
-10.65
-8.30
-6.14
-4.38
-3.06
-2.02
-1.06
-0.01
1.25
2.76
4.57
6.78
9.55
13.12
17.67
23.21
29.55
36.35
43.32
50.30
57.33
64.50
71.91
79.62
87.82
96.80
106.88
118.08
129.91
141.39
151.50
159.73
166.40
172.59
179.47
187.51
195.98
203.23
207.34
207.22
203.09
196.32
188.64
181.13
173.66
165.03
153.58
138.03
117.90
93.53
65.67
35.20
3.07
-29.55
-61.20
-90.52
-116.79
-140.33
-162.31
-183.98
-205.78
-226.78
-244.89
-257.77
-263.70
-262.23
-254.05
-240.56
-223.29
-203.59
-182.64
-161.53
-141.18
-122.25
-105.04
-89.59
-75.93
-64.28
-54.98
-48.25
-43.83
-40.89
-38.16
-34.41
-28.91
-21.65
-13.22
-4.55
3.44
10.03
14.76
17.26
17.23
14.54
9.28
2.00
-6.45
-15.12
-23.26
-30.64
-37.56
-44.65
-52.53
-61.44
-71.04
-80.50
-88.81
-95.13
-99.02
-100.55
-100.20
-98.59
-96.34
-93.86
-91.35
-88.75
-85.90
-82.58
-78.57
-73.69
-67.80
-60.88
-52.98
-44.22
-34.79
-24.86
-14.56
-3.93
6.99
18.14
29.33
40.24
50.50
59.78
67.86
74.70
80.31
84.68
87.71
89.21
88.99
86.99
83.38
78.44
72.50
65.80
58.48
50.60
42.25
33.59
24.85
16.30
8.21
0.84
-5.57
-10.71
-14.27
-15.98
-15.79
-13.89
-10.77
-7.10
-3.62
-0.83
1.01
2.03
2.53
2.93
3.49
4.32
5.30
6.28
7.10
7.67
7.90
7.58
6.44
4.29
1.20
-2.25
-5.18
-6.68
-6.32
-4.36
-1.77
0.23
0.61
-1.20
-5.34
-11.72
-20.05
-29.57
-38.74
-45.31
-47.00
-42.52
-32.39
-19.06
-5.94
3.91
8.98
9.64
7.55
4.69
2.54
1.83
2.81
5.61
10.51
17.75
27.40
39.21
52.83
67.98
84.55
102.40
120.99
139.17
155.15
166.97
173.02
172.47
165.44
152.82
135.92
116.24
95.23
74.23
54.43
36.71
21.58
9.14
-0.79
-8.43
-13.91
-17.28
-18.65
-18.33
-16.93
-15.29
-14.27
-14.58
-16.55
-20.06
-24.59
-29.38
-33.64
-36.85
-38.88
-40.05
-40.98
-42.34
-44.62
-48.02
-52.41
-57.42
-62.57
-67.41
-71.56
-74.77
-76.99
-78.30
-78.97
-79.30
-79.59
-79.98
-80.40
-80.58
-80.10
-78.53
-75.57
-71.13
-65.33
-58.54
-51.18
-43.69
-36.41
-29.53
-23.13
-17.14
-11.47
-6.01
-0.70
4.42
9.25
13.69
17.73
21.49
25.17
28.93
32.79
36.54
39.88
42.49
44.22
45.05
45.05
44.28
42.78
40.56
37.69
34.32
30.65
26.84
22.94
18.93
14.82
10.78
7.18
4.50
3.14
3.25
4.62
6.77
9.10
11.09
12.39
12.86
12.54
11.53
9.95
7.89
5.44
2.69
-0.18
-3.04
-5.72
-8.14
-10.31
-12.23
-13.91
-15.31
-16.34
-16.87
-16.85
-16.25
-15.14
-13.62
-11.84
-9.95
-8.12
-6.55
-5.43
-4.89
-4.95
-5.42
-5.93
-6.04
-5.38
-3.72
-1.13
2.15
5.72
9.19
12.24
14.71
16.54
17.76
18.47
18.80
18.85
18.73
18.42
17.92
17.19
16.20
15.04
13.80
12.58
11.42
10.30
9.17
7.96
6.69
5.39
4.13
2.98
2.01
1.22
0.62
0.09
-0.51
-1.36
-2.58
-4.16
-5.89
-7.44
-8.43
-8.56
-7.72
-5.99
-3.62
-0.87
1.95
4.61
7.01
9.12
11.01
12.75
14.40
15.90
17.17
18.10
18.62
18.73
18.49
18.03
17.50
17.00
16.57
16.09
15.32
13.93
11.65
8.33
4.07
-0.85
-6.03
-11.07
-15.66
-19.58
-22.75
-25.14
-26.88
-28.17
-29.26
-30.45
-31.89
-33.52
-35.01
-35.83
-35.37
-33.29
-29.63
-24.89
-19.80
-15.10
-11.17
-7.98
-5.22
-2.53
0.23
2.94
5.30
7.09
8.29
9.05
9.58
9.99
10.18
9.94
9.09
7.63
5.78
3.87
2.21
1.00
0.23
-0.24
-0.57
-0.87
-1.16
-1.38
-1.42
-1.18
-0.54
0.52
1.99
3.74
5.48
6.93
7.84
8.13
7.99
7.79
7.95
8.77
10.30
12.36
14.66
16.98
19.21
21.36
23.46
25.38
26.88
27.62
27.28
25.70
22.87
18.97
14.27
9.12
3.87
-1.18
-5.83
-9.95
-13.47
-16.37
-18.66
-20.45
-21.91
-23.25
-24.67
-26.19
-27.68
-28.86
-29.38
-29.06
-27.90
-26.13
-24.01
-21.71
-19.28
-16.70
-14.00
-11.32
-8.89
-6.88
-5.35
-4.14
-2.99
-1.62
0.13
2.30
4.84
7.70
10.76
13.89
16.92
19.63
21.86
23.54
24.74
25.58
26.15
26.47
26.48
26.14
25.45
24.49
23.38
22.24
21.14
20.08
18.97
17.72
16.31
14.83
13.46
12.40
11.73
11.34
10.99
10.45
9.62
8.64
7.79
7.27
7.06
6.85
6.20
4.79
2.63
0.09
-2.23
-3.77
-4.29
-3.90
-2.95
-1.83
-0.80
0.10
0.89
1.61
2.16
2.43
2.33
1.92
1.33
0.75
0.25
-0.21
-0.72
-1.34
-2.04
-2.73
-3.37
-4.01
-4.76
-5.74
-6.94
-8.22
-9.40
-10.29
-10.88
-11.26
-11.61
-12.10
-12.80
-13.72
-14.78
-15.89
-16.92
-17.76
-18.34
-18.61
-18.52
-18.05
-17.11
-15.57
-13.34
-10.34
-6.59
-2.18
2.82
8.30
14.10
19.87
25.02
28.80
30.56
29.97
27.21
22.91
17.92
12.92
8.29
4.11
0.34
-2.89
-5.30
-6.51
-6.35
-4.98
-2.89
-0.74
0.97
2.02
2.51
2.65
2.61
2.43
2.02
1.30
0.23
-1.18
-2.85
-4.67
-6.46
-7.94
-8.81
-8.86
-8.09
-6.75
-5.28
-4.08
-3.39
-3.19
-3.28
-3.43
-3.55
-3.70
-4.04
-4.68
-5.64
-6.79
-7.94
-8.89
-9.50
-9.67
-9.29
-8.26
-6.52
-4.11
-1.29
1.53
3.85
5.28
5.64
5.08
3.90
2.48
1.05
-0.32
-1.69
-3.15
-4.72
-6.28
-7.62
-8.49
-8.72
-8.24
-7.12
-5.49
-3.53
-1.36
0.89
3.07
5.03
6.61
7.69
8.18
8.12
7.57
6.62
5.40
4.04
2.64
1.34
0.24
-0.53
-0.82
-0.50
0.52
2.20
4.31
6.51
8.35
9.45
9.64
8.98
7.69
6.05
4.28
2.51
0.84
-0.62
-1.74
-2.40
-2.59
-2.42
-2.07
-1.75
-1.59
-1.56
-1.61
-1.71
-1.91
-2.39
-3.36
-4.94
-7.05
-9.40
-11.42
-12.52
-12.22
-10.40
-7.40
-3.84
-0.43
2.40
4.62
6.54
8.59
11.06
13.97
17.14
20.30
23.24
25.82
27.97
29.65
30.78
31.37
31.45
31.03
30.00
28.13
25.09
20.73
15.20
9.04
3.04
-1.90
-5.06
-6.02
-4.77
-1.67
2.55
6.99
10.72
13.17
14.36
15.01
16.31
19.51
25.39
33.96
44.30
54.75
63.16
67.30
65.32
56.26
40.38
19.26
-4.45
-27.69
-47.74
-62.78
-72.18
-76.33
-76.22
-73.09
-68.15
-62.55
-57.39
-53.56
-51.58
-51.44
-52.58
-54.02
-54.72
-53.96
-51.56
-47.99
-44.15
-41.05
-39.46
-39.52
-40.73
-42.01
-42.17
-40.31
-36.20
-30.29
-23.44
-16.47
-9.80
-3.38
3.08
9.83
16.79
23.55
29.64
34.81
39.15
43.04
46.88
50.85
54.92
58.94
62.88
66.85
70.97
75.09
78.69
80.89
80.76
77.71
71.66
63.19
53.35
43.54
35.43
30.70
30.83
36.57
47.65
62.57
78.97
94.35
107.07
117.09
126.22
137.54
154.16
177.82
207.81
240.74
271.25
293.59
303.24
298.05
278.60
247.51
208.43
164.84
119.41
73.64
27.92
-18.00
-64.38
-110.68
-154.99
-194.11
-224.36
-242.79
-248.38
-242.50
-228.38
-210.04
-191.14
-174.43
-161.71
-154.18
-152.46
-156.30
-164.17
-173.19
-179.76
-180.81
-174.83
-162.39
-145.69
-127.52
-110.23
-95.04
-82.14
-71.14
-61.60
-53.39
-46.66
-41.61
-38.30
-36.63
-36.39
-37.51
-40.18
-44.74
-51.39
-59.89
-69.24
-77.77
-83.56
-85.09
-81.76
-74.24
-64.15
-53.39
-43.39
-34.53
-26.08
-16.65
-4.96
9.44
25.82
42.43
57.03
67.80
73.91
75.71
74.42
71.39
67.58
63.14
57.54
50.01
39.94
27.24
12.41
-3.66
-19.88
-35.16
-48.63
-59.72
-68.30
-74.69
-79.58
-83.75
-87.84
-92.11
-96.44
-100.42
-103.55
-105.38
-105.58
-103.88
-100.06
-93.98
-85.59
-75.06
-62.80
-49.38
-35.48
-21.73
-8.68
3.25
13.78
22.78
30.23
36.19
40.77
44.07
46.28
47.67
48.62
49.54
50.73
52.23
53.74
54.80
54.89
53.70
51.24
47.77
43.67
39.23
34.57
29.57
24.01
17.70
10.59
2.85
-5.21
-13.27
-21.08
-28.59
-35.84
-42.87
-49.62
-55.86
-61.26
-65.48
-68.18
-69.11
-68.00
-64.65
-58.91
-50.85
-40.85
-29.56
-17.81
-6.44
3.93
13.00
20.70
27.17
32.56
36.96
40.39
42.82
44.22
44.65
44.26
43.27
41.89
40.26
38.42
36.36
34.05
31.51
28.80
26.09
23.56
21.32
19.40
17.69
15.99
14.10
11.88
9.31
6.55
3.84
1.49
-0.22
-1.07
-0.96
0.13
2.09
4.72
7.80
11.06
14.33
17.42
20.25
22.68
24.62
25.96
26.67
26.78
26.40
25.70
24.85
23.98
23.13
22.27
21.36
20.40
19.39
18.38
17.35
16.25
14.96
13.43
11.63
9.67
7.61
5.50
3.33
1.09
-1.13
-3.10
-4.47
-4.93
-4.33
-2.83
-0.81
1.24
2.93
4.09
4.78
5.27
5.88
6.94
8.62
10.96
13.78
16.77
19.52
21.65
22.90
23.15
22.49
21.05
19.03
16.60
13.95
11.27
8.75
6.51
4.55
2.73
0.79
-1.50
-4.25
-7.42
-10.78
-13.96
-16.52
-18.05
-18.25
-17.01
-14.49
-11.06
-7.19
-3.38
0.01
2.81
4.98
6.57
7.65
8.26
8.48
8.40
8.19
8.05
8.12
8.45
8.94
9.43
9.73
9.76
9.49
9.02
8.46
7.89
7.35
6.79
6.10
5.14
3.79
1.98
-0.24
-2.69
-5.12
-7.23
-8.75
-9.47
-9.26
-8.09
-6.06
-3.39
-0.39
2.62
5.32
7.54
9.19
10.26
10.76
10.66
9.94
8.59
6.71
4.52
2.27
0.23
-1.45
-2.76
-3.85
-4.94
-6.19
-7.64
-9.19
-10.64
-11.84
-12.78
-13.51
-14.18
-14.92
-15.76
-16.68
-17.64
-18.53
-19.19
-19.41
-18.96
-17.68
-15.51
-12.57
-9.15
-5.59
-2.18
0.87
3.50
5.69
7.50
8.92
9.97
10.63
10.92
10.92
10.79
10.64
10.55
10.47
10.23
9.68
8.74
7.52
6.25
5.21
4.60
4.43
4.52
4.57
4.30
3.51
2.15
0.27
-1.97
-4.38
-6.69
-8.61
-9.77
-9.92
-8.92
-6.89
-4.17
-1.18
1.68
4.16
6.20
7.81
9.03
9.88
10.35
10.50
10.46
10.38
10.39
10.57
10.90
11.28
11.61
11.80
11.78
11.52
11.00
10.24
9.29
8.25
7.21
6.26
5.42
4.59
3.63
2.36
0.63
-1.56
-4.05
-6.51
-8.54
-9.75
-9.87
-8.83
-6.75
-3.89
-0.60
2.75
5.84
8.47
10.51
11.97
12.97
13.58
13.88
13.89
13.64
13.21
12.69
12.15
11.63
11.08
10.42
9.60
8.70
7.85
7.18
6.74
6.43
6.04
5.38
4.36
3.00
1.40
-0.38
-2.30
-4.39
-6.62
-8.84
-10.83
-12.26
-12.80
-12.15
-10.14
-6.66
-1.80
4.20
10.99
18.10
25.12
31.73
37.71
42.95
47.44
51.22
54.47
57.46
60.53
63.89
67.61
71.51
75.28
78.74
81.94
85.26
89.25
94.47
101.16
109.17
117.87
126.18
132.72
136.02
134.83
128.48
117.06
101.53
83.41
64.32
45.56
27.79
11.15
-4.52
-19.28
-32.95
-45.06
-55.13
-62.86
-68.23
-71.44
-72.84
-72.68
-71.19
-68.54
-64.97
-60.83
-56.59
-52.70
-49.48
-47.04
-45.19
-43.61
-41.91
-39.80
-37.16
-33.99
-30.38
-26.46
-22.31
-18.02
-13.69
-9.41
-5.25
-1.26
2.60
6.42
10.30
14.28
18.23
21.80
24.44
25.54
24.57
21.33
15.96
8.98
1.11
-6.92
-14.51
-21.28
-27.09
-31.98
-36.07
-39.56
-42.60
-45.33
-47.81
-50.11
-52.28
-54.39
-56.49
-58.54
-60.39
-61.81
-62.51
-62.29
-61.06
-58.94
-56.24
-53.52
-51.46
-50.72
-51.63
-54.02
-57.09
-59.62
-60.39
-58.59
-54.22
-48.02
-41.20
-35.02
-30.35
-27.50
-26.39
-26.77
-28.53
-31.77
-36.66
-43.16
-50.85
-58.85
-66.05
-71.28
-73.66
-72.70
-68.28
-60.63
-50.26
-38.03
-25.13
-12.97
-2.90
4.19
8.11
9.51
9.64
9.98
11.84
15.96
22.47
30.91
40.41
49.89
58.29
64.70
68.52
69.56
67.97
64.17
58.62
51.85
44.34
36.58
29.10
22.37
16.63
11.87
7.87
4.48
1.90
0.80
2.10
6.55
14.24
24.32
35.20
45.17
52.99
58.33
61.66
63.75
65.02
65.20
63.32
58.21
49.01
35.65
18.90
0.27
-18.36
-34.94
-47.62
-55.03
-56.66
-53.07
-45.89
-37.34
-29.47
-23.43
-19.16
-15.62
-11.57
-6.27
0.03
6.30
11.31
14.27
15.18
14.71
13.81
13.28
13.52
14.70
16.90
20.32
25.23
31.69
39.36
47.46
54.94
60.95
65.13
67.75
69.51
71.17
73.25
75.91
78.95
82.00
84.71
86.77
87.91
87.97
86.98
85.30
83.67
83.02
84.14
87.19
91.45
95.40
97.21
95.37
89.32
79.63
67.72
55.39
44.14
34.86
27.84
22.93
19.79
18.00
17.06
16.33
15.11
12.77
8.95
3.68
-2.66
-9.50
-16.30
-22.80
-29.15
-35.88
-43.78
-53.49
-65.25
-78.75
-93.15
-107.29
-120.04
-130.49
-138.13
-142.86
-144.91
-144.68
-142.66
-139.28
-134.92
-129.86
-124.32
-118.45
-112.47
-106.55
-100.82
-95.30
-89.72
-83.52
-75.92
-66.21
-54.02
-39.60
-23.89
-8.34
5.47
16.25
23.32
26.61
26.67
24.38
20.73
16.66
12.95
10.19
8.75
8.70
9.78
11.41
12.75
12.97
11.56
8.55
4.59
0.83
-1.51
-1.64
0.64
4.87
10.19
15.61
20.26
23.48
24.80
23.92
20.62
14.89
7.08
-2.17
-12.04
-21.83
-31.14
-39.85
-47.93
-55.47
-62.30
-67.98
-72.07
-74.36
-75.12
-74.94
-74.56
-74.56
-75.98
-79.68
-86.11
-95.08
-105.59
-116.21
-125.46
-132.41
-136.72
-140.17
-144.70
-151.40
-159.95
-168.71
-175.70
-179.57
-180.30
-178.34
-176.73
-177.91
-182.58
-189.54
-196.34
-200.60
-201.27
-199.12
-195.28
-194.43
-200.59
-215.43
-237.87
-264.60
-291.64
-315.95
-336.26
-336.59
-306.78
-242.04
-145.15
-26.52
99.36
218.88
322.23
398.35
449.44
477.11
482.94
469.49
441.01
403.54
363.74
328.87
303.52
290.36
287.50
288.37
284.69
270.06
243.11
207.99
171.66
137.33
108.56
84.78
63.83
44.15
25.55
8.66
-3.40
-10.23
-13.33
-13.86
-13.90
-14.85
-16.57
-17.78
-16.82
-12.59
-5.71
1.79
7.68
9.09
3.85
-8.32
-25.47
-44.09
-60.30
-71.59
-77.21
-77.76
-74.91
-70.36
-64.93
-58.54
-50.67
-41.06
-30.34
-19.62
-9.91
-1.83
4.61
9.81
14.21
18.00
20.99
22.71
22.86
21.64
19.63
17.66
16.51
16.63
18.01
20.24
22.60
24.36
24.97
24.22
22.28
19.58
16.63
13.82
11.37
9.31
7.63
6.46
6.03
6.57
8.19
10.71
13.68
16.60
18.98
20.51
21.11
20.96
20.45
20.10
20.34
21.25
22.53
23.62
23.95
23.28
21.82
20.12
18.74
17.99
17.69
17.43
16.66
14.93
11.82
6.88
-0.35
-10.12
-22.13
-35.37
-47.76
-56.80
-60.33
-57.41
-48.87
-37.17
-25.58
-17.08
-13.79
-15.62
-20.91
-27.28
-32.65
-36.02
-37.64
-38.78
-41.02
-46.42
-55.36
-67.03
-79.51
-90.09
-95.96
-94.80
-85.39
-67.84
-44.87
-18.53
9.83
40.68
76.62
121.46
178.67
249.57
332.48
414.73
481.06
516.68
513.95
476.46
416.87
350.13
287.18
239.82
206.51
184.77
173.10
170.24
173.20
176.31
172.40
152.71
114.36
59.11
-5.58
-71.38
-132.44
-186.70
-234.76
-277.53
-314.35
-342.22
-358.86
-362.35
-353.13
-333.96
-308.92
-282.07
-256.31
-233.28
-213.28
-196.94
-184.40
-175.79
-170.91
-168.95
-168.42
-167.69
-165.56
-161.38
-155.68
-149.16
-142.45
-135.71
-128.68
-120.90
-111.90
-101.36
-88.91
-74.25
-57.17
-37.74
-16.55
5.48
27.49
48.99
69.93
90.41
110.13
128.10
142.78
152.57
156.55
155.00
149.38
141.93
135.12
131.02
131.03
135.65
144.51
156.44
169.61
181.81
190.56
193.52
188.75
175.19
152.96
123.46
89.10
52.81
17.38
-14.96
-42.81
-65.54
-83.14
-96.01
-104.59
-109.34
-110.55
-108.40
-103.18
-95.52
-86.63
-78.23
-72.20
-70.00
-72.14
-77.91
-85.58
-92.90
-97.82
-99.28
-97.49
-93.93
-90.79
-89.97
-92.07
-95.66
-97.15
-91.52
-73.66
-40.08
9.63
71.97
140.05
204.99
258.03
292.62
305.73
298.22
274.20
239.66
200.94
163.32
130.11
102.29
78.81
57.40
35.75
12.57
-11.85
-35.59
-55.87
-70.02
-76.31
-74.32
-64.95
-49.93
-31.47
-11.77
7.16
23.71
36.85
46.34
52.85
57.56
61.62
65.42
68.40
69.27
66.78
60.49
51.07
39.96
28.72
18.40
9.38
1.63
-4.94
-10.27
-14.25
-16.94
-18.61
-19.48
-19.35
-17.59
-13.49
-6.83
1.66
10.34
17.18
20.41
19.13
13.50
4.47
-6.55
-18.19
-29.32
-39.16
-47.21
-53.22
-57.07
-58.81
-58.57
-56.48
-52.69
-47.37
-40.75
-33.23
-25.35
-17.70
-10.78
-4.94
-0.29
3.28
5.98
8.01
9.53
10.60
11.18
11.21
10.60
9.26
7.13
4.10
0.00
-5.45
-12.57
-21.52
-32.09
-43.57
-54.75
-64.19
-70.54
-72.91
-71.08
-65.56
-57.43
-48.01
-38.58
-30.05
-22.81
-16.88
-12.05
-8.21
-5.46
-4.09
-4.35
-6.27
-9.58
-13.82
-18.62
-23.84
-29.54
-35.88
-42.86
-50.30
-57.93
-65.54
-73.13
-80.89
-89.02
-97.61
-106.56
-115.61
-124.50
-133.04
-141.18
-148.94
-156.35
-163.33
-169.70
-175.30
-180.03
-183.89
-186.99
-189.49
-191.52
-193.13
-194.26
-194.70
-194.24
-192.63
-189.73
-185.53
-180.11
-173.57
-165.95
-157.14
-146.90
-135.04
-121.66
-107.40
-93.36
-80.91
-71.06
-64.03
-59.04
-54.57
-48.95
-41.08
-30.92
-19.37
-7.75
2.85
12.14
21.02
31.50
46.64
70.39
107.04
160.06
230.11
313.18
400.11
478.25
535.32
563.98
564.81
546.28
521.31
502.18
496.14
503.52
518.90
533.97
540.60
532.86
507.81
465.78
410.66
349.66
292.04
246.38
217.19
202.78
195.36
184.04
159.34
117.07
59.64
-5.45
-69.19
-124.47
-167.93
-199.72
-221.85
-236.58
-245.50
-249.74
-250.55
-249.57
-248.54
-248.55
-249.42
-249.59
-246.69
-238.72
-224.95
-206.28
-184.79
-162.71
-141.44
-121.18
-101.22
-80.69
-59.31
-37.75
-17.34
0.52
14.95
25.82
33.44
37.99
39.01
35.39
25.79
9.30
-13.88
-42.29
-73.46
-104.56
-133.04
-157.01
-175.31
-187.42
-193.30
-193.32
-188.35
-179.70
-169.06
-158.02
-147.76
-138.63
-130.24
-121.69
-112.13
-101.20
-89.16
-76.79
-64.88
-53.85
-43.55
-33.33
-22.47
-10.55
2.20
14.88
26.34
35.51
41.91
45.74
47.73
48.79
49.65
50.61
51.64
52.55
53.16
53.43
53.31
52.65
51.12
48.26
43.61
36.96
28.44
18.53
8.00
-2.36
-11.89
-20.37
-27.97
-35.20
-42.56
-50.27
-58.01
-65.00
-70.19
-72.57
-71.45
-66.55
-58.13
-46.95
-34.34
-22.05
-11.87
-5.26
-2.87
-4.36
-8.52
-13.78
-18.73
-22.46
-24.66
-25.47
-25.26
-24.50
-23.70
-23.35
-23.84
-25.32
-27.56
-30.12
-32.45
-34.07
-34.73
-34.33
-32.92
-30.61
-27.55
-23.96
-20.17
-16.58
-13.63
-11.68
-10.93
-11.27
-12.28
-13.17
-12.87
-10.27
-4.42
5.18
18.45
34.70
52.73
71.09
88.23
102.77
113.78
120.85
124.27
124.91
124.09
123.19
123.39
125.37
129.16
134.19
139.47
143.91
146.60
147.03
145.18
141.40
136.23
130.18
123.43
115.73
106.32
94.17
78.26
58.05
33.80
6.66
-21.53
-48.79
-73.51
-94.81
-112.55
-127.04
-138.57
-147.09
-152.11
-152.97
-149.16
-140.69
-128.22
-112.89
-96.05
-78.86
-62.09
-46.08
-30.89
-16.54
-3.08
9.45
21.10
32.12
42.91
53.80
64.83
75.68
85.76
94.50
101.64
107.30
111.87
115.72
118.85
120.80
120.80
118.04
112.12
103.23
92.21
80.21
68.31
57.25
47.23
38.09
29.52
21.26
13.22
5.46
-1.92
-8.75
-14.78
-19.60
-22.68
-23.49
-21.75
-17.57
-11.55
-4.63
2.13
7.79
11.69
13.48
13.11
10.81
7.04
2.50
-1.94
-5.42
-7.22
-7.09
-5.22
-2.22
1.18
4.41
7.25
9.72
11.82
13.31
13.66
12.20
8.48
2.57
-4.84
-12.63
-19.64
-25.07
-28.66
-30.74
-31.87
-32.57
-33.13
-33.63
-34.03
-34.29
-34.37
-34.09
-33.10
-30.99
-27.43
-22.43
-16.41
-10.01
-3.88
1.56
6.00
9.15
10.60
9.94
7.09
2.65
-2.05
-5.33
-5.75
-2.72
3.25
10.87
18.54
25.01
29.71
32.71
34.31
34.70
33.78
31.24
26.96
21.24
14.80
8.45
2.76
-2.36
-7.44
-13.17
-19.76
-26.71
-32.87
-36.91
-37.95
-35.98
-31.91
-27.08
-22.79
-19.75
-18.06
-17.31
-16.98
-16.62
-16.02
-15.12
-13.93
-12.56
-11.22
-10.20
-9.69
-9.47
-8.76
-6.30
-0.91
7.88
19.33
31.43
41.55
47.28
47.33
41.92
32.59
21.57
11.09
2.67
-2.99
-6.10
-7.47
-8.29
-9.84
-13.15
-18.69
-26.17
-34.54
-42.21
-47.59
-49.51
-47.57
-42.15
-34.16
-24.71
-14.85
-5.40
2.99
9.85
14.86
17.84
18.80
17.96
15.72
12.68
9.57
7.24
6.58
8.27
12.64
19.43
27.81
36.41
43.64
47.94
48.12
43.67
34.95
23.16
10.11
-2.23
-12.31
-19.35
-23.53
-25.70
-26.92
-27.93
-28.90
-29.40
-28.74
-26.42
-22.34
-16.92
-10.93
-5.33
-1.00
1.46
1.90
0.74
-1.13
-2.58
-2.64
-0.86
2.46
6.43
10.04
12.51
13.76
14.28
14.94
16.51
19.31
22.93
26.35
28.15
26.98
22.06
13.62
2.92
-8.05
-17.14
-22.76
-24.26
-22.10
-17.54
-12.12
-7.19
-3.57
-1.52
-0.80
-1.00
-1.68
-2.51
-3.31
-3.94
-4.23
-4.01
-3.17
-1.76
-0.05
1.57
2.77
3.43
3.79
4.36
5.78
8.54
12.71
17.92
23.32
27.83
30.31
29.92
26.25
19.49
10.42
0.27
-9.61
-17.98
-24.00
-27.37
-28.26
-27.21
-24.93
-22.12
-19.32
-16.87
-14.89
-13.27
-11.84
-10.35
-8.63
-6.62
-4.43
-2.23
-0.23
1.35
2.35
2.76
2.82
3.07
4.28
7.15
12.01
18.49
25.49
31.39
34.55
33.82
28.95
20.74
10.85
1.37
-5.77
-9.30
-8.89
-5.15
0.60
6.79
11.94
15.01
15.45
13.21
8.75
2.92
-3.00
-7.56
-9.47
-7.94
-3.01
4.41
12.79
20.49
26.30
29.83
31.52
32.47
33.85
36.44
40.30
44.79
48.86
51.51
51.97
49.96
45.65
39.80
33.79
29.59
29.26
34.05
43.48
55.04
64.84
69.19
66.23
56.67
43.09
28.31
13.87
-0.47
-15.89
-32.99
-50.70
-66.24
-76.14
-77.80
-70.47
-55.46
-35.42
-13.35
8.17
27.14
41.92
50.93
52.60
45.83
30.64
8.76
-16.42
-40.64
-60.17
-73.00
-79.24
-80.65
-79.36
-76.80
-73.24
-68.21
-61.31
-52.87
-44.05
-36.35
-31.02
-28.48
-28.37
-29.77
-31.75
-33.71
-35.49
-37.16
-38.77
-40.12
-40.70
-39.94
-37.57
-33.73
-29.09
-24.44
-20.40
-17.08
-14.17
-11.18
-7.85
-4.36
-1.33
0.45
0.47
-1.28
-4.11
-6.88
-8.43
-8.00
-5.55
-1.74
2.38
5.89
8.37
10.09
11.70
13.91
17.05
20.93
25.05
28.93
32.30
35.24
38.00
40.85
43.99
47.58
51.84
57.03
63.31
70.50
77.88
84.24
88.19
88.74
85.55
79.03
70.01
59.24
47.12
33.62
18.63
2.32
-14.61
-31.07
-45.92
-58.36
-68.15
-75.56
-81.01
-84.78
-86.90
-87.16
-85.44
-81.81
-76.67
-70.65
-64.34
-58.19
-52.42
-47.15
-42.52
-38.76
-36.16
-34.84
-34.64
-34.97
-34.97
-33.70
-30.48
-25.17
-18.17
-10.37
-2.84
3.47
8.00
10.61
11.53
11.22
10.12
8.59
6.89
5.28
4.15
4.04
5.56
9.26
15.42
23.90
34.09
44.97
55.26
63.46
68.06
67.80
62.04
51.16
36.71
21.26
7.67
-1.73
-5.88
-5.27
-1.50
3.45
8.04
11.52
14.01
16.00
17.94
19.90
21.54
22.39
22.08
20.59
18.27
15.75
13.70
12.64
12.80
14.13
16.36
19.22
22.51
26.16
30.17
34.52
39.11
43.70
47.91
51.21
52.93
52.36
48.92
42.37
33.10
22.16
11.13
1.61
-5.36
-9.83
-12.96
-16.68
-22.85
-32.50
-45.32
-59.82
-73.77
-84.95
-91.60
-92.69
-87.92
-77.66
-62.92
-45.32
-27.08
-10.63
1.82
8.78
9.85
5.64
-2.45
-12.72
-23.46
-33.27
-41.08
-46.28
-48.69
-48.58
-46.64
-43.78
-40.88
-38.63
-37.32
-36.89
-37.01
-37.26
-37.27
-36.78
-35.67
-33.89
-31.44
-28.27
-24.25
-19.18
-12.83
-5.07
3.96
13.78
23.54
32.21
38.90
43.14
45.11
45.50
45.24
45.11
45.54
46.46
47.44
47.89
47.25
45.13
41.37
36.05
29.50
22.25
14.98
8.37
3.03
-0.66
-2.66
-3.30
-3.27
-3.48
-4.73
-7.54
-11.84
-17.07
-22.31
-26.60
-29.16
-29.64
-28.12
-24.97
-20.71
-15.76
-10.41
-4.74
1.21
7.35
13.41
18.98
23.59
26.84
28.50
28.55
27.13
24.46
20.79
16.39
11.54
6.63
2.00
-2.04
-5.31
-7.88
-10.06
-12.30
-15.04
-18.53
-22.75
-27.39
-31.98
-36.04
-39.26
-41.58
-43.14
-44.20
-44.99
-45.60
-45.93
-45.69
-44.49
-42.00
-38.07
-32.85
-26.74
-20.32
-14.10
-8.39
-3.24
1.49
5.97
10.22
14.12
17.43
19.90
21.51
22.44
23.03
23.67
24.55
25.59
26.46
26.77
26.25
24.93
23.09
21.21
19.64
18.48
17.55
16.50
15.07
13.26
11.35
9.65
8.38
7.43
6.51
5.31
3.79
2.29
1.43
1.81
3.75
7.15
11.60
16.69
22.24
28.40
35.44
43.52
52.41
61.56
70.25
77.92
84.30
89.48
93.72
97.41
100.89
104.36
107.73
110.45
111.52
109.61
103.38
91.97
75.35
54.53
31.50
8.73
-11.28
-26.80
-37.25
-43.42
-47.22
-50.85
-55.95
-62.82
-70.20
-75.80
-77.20
-72.85
-62.61
-47.75
-30.40
-12.83
3.21
16.91
28.48
38.87
49.40
61.20
74.81
89.94
105.59
120.33
132.69
141.45
145.74
145.13
139.66
129.90
117.02
102.76
89.13
77.94
70.31
66.27
64.70
63.63
60.83
54.47
43.76
29.09
11.89
-5.96
-22.85
-37.91
-51.11
-63.02
-74.35
-85.54
-96.64
-107.38
-117.40
-126.30
-133.69
-139.05
-141.68
-140.75
-135.53
-125.65
-111.29
-93.20
-72.58
-50.95
-29.83
-10.66
5.47
18.00
27.06
33.41
38.29
43.03
48.54
54.87
61.10
65.51
66.04
60.99
49.65
32.58
11.54
-11.05
-32.86
-52.37
-69.14
-83.73
-97.16
-110.33
-123.70
-137.31
-150.95
-164.33
-176.99
-188.06
-196.03
-199.11
-195.69
-185.20
-168.57
-148.16
-126.95
-107.54
-91.33
-78.22
-67.07
-56.48
-45.51
-33.99
-22.39
-11.36
-1.36
7.53
15.47
22.55
28.61
33.19
35.78
36.18
34.67
31.99
29.09
26.73
25.19
24.22
23.17
21.34
18.18
13.43
6.99
-1.04
-10.47
-20.93
-31.77
-42.15
-51.17
-58.16
-62.93
-65.76
-67.19
-67.70
-67.32
-65.51
-61.27
-53.44
-41.07
-23.79
-1.98
23.17
49.74
75.36
97.65
114.66
125.27
129.49
128.34
123.51
116.84
109.81
103.17
96.99
90.89
84.46
77.63
70.76
64.58
59.87
57.21
56.77
58.30
61.30
65.20
69.46
73.56
76.86
78.55
77.74
73.62
65.86
54.77
41.24
26.47
11.49
-3.06
-17.02
-30.46
-43.35
-55.24
-65.32
-72.64
-76.57
-77.15
-75.23
-72.24
-69.75
-68.94
-70.29
-73.54
-77.93
-82.64
-87.08
-91.04
-94.63
-98.06
-101.50
-104.99
-108.53
-112.00
-115.19
-117.67
-118.80
-117.75
-113.75
-106.29
-95.35
-81.47
-65.68
-49.30
-33.69
-20.11
-9.51
-2.55
0.59
0.17
-2.90
-7.28
-11.38
-13.76
-13.54
-10.59
-5.53
0.59
6.73
12.15
16.57
19.98
22.50
24.16
24.91
24.71
23.57
21.61
19.00
15.77
11.86
7.10
1.30
-5.60
-13.43
-21.73
-29.79
-36.73
-41.67
-43.86
-42.91
-38.91
-32.39
-24.26
-15.55
-7.22
-0.00
5.69
9.79
12.41
13.83
14.31
14.04
13.12
11.53
9.23
6.23
2.65
-1.25
-5.00
-7.97
-9.34
-8.32
-4.29
2.94
13.01
25.14
38.31
51.75
65.08
78.40
92.04
106.13
120.37
133.86
145.40
153.71
157.87
157.51
152.88
144.85
134.86
124.77
116.70
112.57
113.46
119.17
128.07
137.55
144.98
148.52
147.55
142.60
134.86
125.63
116.17
107.51
100.50
95.59
92.58
90.44
87.59
82.36
73.67
61.31
45.88
28.23
8.98
-11.75
-34.17
-58.32
-83.64
-108.82
-132.08
-151.68
-166.55
-176.46
-181.90
-183.69
-182.68
-179.85
-176.52
-174.54
-175.89
-181.73
-191.55
-202.91
-212.08
-215.49
-211.05
-198.68
-179.87
-156.56
-130.14
-101.11
-69.54
-35.90
