1649793385.00
64.000000
-0.00
-0.00
-0.00
-0.00
-0.00
-0.00
-0.00
-0.00
-0.00
-0.00
0.00
0.01
0.01
-0.00
-0.03
-0.05
-0.05
0.00
0.13
0.36
0.66
1.01
1.37
1.72
2.06
2.40
2.79
3.24
3.80
4.42
5.06
5.66
6.20
6.68
7.15
7.68
8.31
9.14
10.09
11.04
11.88
12.56
13.14
13.76
14.65
15.96
17.91
20.32
22.90
25.38
27.58
29.57
31.68
34.32
37.81
42.54
48.15
54.10
59.83
64.97
69.58
74.14
79.34
85.71
93.76
103.00
112.62
121.73
129.77
136.75
143.30
150.75
157.77
166.64
177.95
191.79
206.97
220.57
228.25
225.36
208.53
176.87
132.76
80.05
23.07
-34.94
-92.44
-149.16
-205.23
-260.37
-313.74
-363.87
-409.83
-450.91
-486.50
-515.74
-537.23
-549.22
-549.96
-538.37
-514.21
-478.67
-433.88
-382.45
-327.02
-269.84
-212.63
-156.66
-102.95
-52.37
-5.90
35.58
71.43
101.35
125.50
144.38
158.69
169.15
176.37
180.75
182.57
182.07
179.51
175.23
169.65
163.18
156.15
148.81
141.30
133.69
126.02
118.33
110.69
103.16
95.80
88.68
81.83
75.25
68.95
62.95
57.25
51.86
46.78
42.03
37.59
33.45
29.61
26.07
22.81
19.83
17.11
14.67
12.48
10.54
8.83
7.35
6.07
4.97
4.05
3.27
2.62
2.09
1.65
1.30
1.01
0.79
0.61
0.47
0.37
0.28
0.22
0.18
0.15
0.13
0.12
0.12
0.12
0.14
0.16
0.19
0.22
0.26
0.30
0.34
0.38
0.43
0.48
0.53
0.58
0.63
0.68
0.74
0.80
0.87
0.94
1.02
1.11
1.23
1.36
1.50
1.63
1.75
1.85
1.95
2.06
2.21
2.44
2.74
3.08
3.45
3.82
4.17
4.53
4.92
5.39
5.95
6.61
7.32
8.03
8.67
9.22
9.71
10.23
10.87
11.73
12.81
14.02
15.19
16.18
16.90
17.40
17.84
18.36
19.06
19.78
20.20
19.84
18.28
15.32
11.10
6.04
0.69
-4.44
-9.17
-13.64
-18.25
-23.38
-29.06
-34.93
-40.25
-44.21
-46.32
-46.59
-45.60
-44.27
-43.53
-44.04
-46.17
-49.78
-54.16
-57.89
-59.02
-55.67
-46.87
-33.28
-17.24
-1.97
9.68
16.40
18.70
18.30
16.96
15.58
13.95
11.27
6.96
1.23
-4.85
-9.69
-11.69
-9.65
-2.98
7.96
21.88
36.75
50.32
60.77
67.17
69.59
68.81
65.79
61.26
55.62
49.03
41.75
34.23
26.98
20.27
14.06
8.04
1.83
-4.70
-11.26
-17.26
-22.07
-24.89
-25.76
-25.59
-25.74
-27.51
-31.58
-37.69
-44.80
-51.57
-57.08
-61.29
-65.04
-69.64
-76.46
-86.32
-99.17
-113.84
-128.05
-138.60
-142.15
-136.04
-119.22
-92.76
-59.50
-23.25
12.46
45.24
74.02
98.60
119.10
135.50
147.57
155.21
158.59
158.24
154.75
148.55
139.72
128.24
114.28
98.40
81.66
65.25
50.15
36.78
24.87
13.71
2.52
-9.10
-20.99
-32.49
-42.78
-51.25
-57.80
-62.99
-67.90
-73.85
-82.03
-92.96
-106.08
-119.50
-130.27
-135.12
-131.51
-118.54
-97.28
-70.39
-41.18
-12.52
13.80
37.19
57.79
75.90
91.57
104.54
114.50
121.27
124.96
125.86
124.27
120.34
114.11
105.71
95.56
84.55
73.88
64.75
57.86
52.99
49.08
44.63
38.34
29.67
19.08
7.67
-3.31
-13.06
-21.53
-29.37
-37.71
-47.70
-60.15
-75.12
-91.57
-107.29
-119.11
-123.73
-118.75
-103.58
-79.87
-50.99
-20.95
6.94
30.88
50.77
67.55
82.39
95.91
107.99
117.97
125.15
129.18
130.33
129.26
126.85
123.80
120.54
117.18
113.63
109.81
105.71
101.36
96.73
91.63
85.64
78.35
69.59
59.68
49.43
39.72
30.88
22.21
11.93
-2.29
-22.35
-48.88
-81.02
-116.87
-154.30
-191.42
-226.65
-258.17
-283.50
-299.73
-304.38
-296.50
-277.39
-250.25
-218.99
-186.82
-155.28
-124.36
-93.38
-62.01
-31.02
-2.13
22.71
42.11
55.72
64.27
68.96
70.98
71.04
69.37
65.96
60.91
54.69
48.10
42.08
37.34
34.15
32.20
30.73
28.84
25.71
20.96
14.67
7.38
-0.13
-7.19
-13.44
-18.90
-23.96
-29.18
-35.12
-42.24
-50.81
-60.76
-71.45
-81.52
-88.94
-91.49
-87.37
-75.95
-58.04
-35.72
-11.65
11.84
33.28
52.16
68.63
82.99
95.27
105.26
112.64
117.30
119.46
119.64
118.49
116.48
113.83
110.50
106.30
101.15
95.09
88.37
81.28
74.04
66.76
59.41
51.94
44.27
36.34
28.06
19.35
10.14
0.37
-9.93
-20.70
-31.85
-43.32
-55.06
-67.17
-79.89
-93.64
-108.80
-125.34
-142.46
-158.29
-170.13
-175.19
-171.46
-158.51
-137.75
-111.97
-84.40
-57.73
-33.52
-12.12
6.84
23.85
39.11
52.46
63.51
71.92
77.63
80.80
81.74
80.76
78.13
74.25
69.57
64.67
60.07
56.09
52.71
49.61
46.33
42.44
37.68
31.94
25.20
17.46
8.75
-0.80
-10.93
-21.26
-31.43
-41.24
-50.71
-60.08
-69.76
-80.22
-92.00
-105.47
-120.64
-136.80
-152.19
-164.21
-169.95
-167.14
-155.00
-134.62
-108.60
-80.11
-51.92
-25.75
-2.19
18.83
37.56
54.08
68.25
79.86
88.80
95.16
99.11
100.84
100.55
98.43
94.78
89.94
84.32
78.30
72.17
66.11
60.21
54.44
48.69
42.79
36.45
29.40
21.37
12.28
2.24
-8.46
-19.38
-30.05
-40.15
-49.54
-58.36
-67.01
-76.15
-86.57
-99.01
-113.66
-129.78
-145.38
-157.45
-162.69
-158.53
-144.13
-120.66
-91.00
-58.72
-27.00
2.07
27.69
49.94
69.23
85.82
99.74
110.83
118.98
124.16
126.44
125.92
122.79
117.33
110.08
101.80
93.38
85.59
78.89
73.30
68.41
63.60
58.32
52.25
45.42
37.99
30.15
21.88
13.00
3.26
-7.42
-18.86
-30.59
-42.09
-52.96
-63.14
-72.92
-82.90
-93.81
-106.31
-120.73
-136.61
-152.43
-165.54
-172.66
-170.81
-158.31
-135.58
-105.01
-70.33
-35.29
-2.75
25.88
50.38
71.20
88.77
103.25
114.53
122.45
127.00
128.40
127.04
123.40
117.97
111.32
103.98
96.44
89.06
82.02
75.27
68.63
61.95
55.12
48.14
40.99
33.58
25.66
16.92
7.13
-3.74
-15.46
-27.57
-39.48
-50.71
-61.04
-70.58
-79.82
-89.50
-100.52
-113.64
-129.04
-145.94
-162.22
-174.65
-179.55
-173.94
-156.66
-128.88
-93.80
-55.70
-18.60
14.72
43.04
66.36
85.28
100.36
111.85
119.83
124.35
125.67
124.30
120.84
115.89
109.92
103.31
96.33
89.26
82.30
75.66
69.42
63.54
57.83
52.02
45.83
38.97
31.19
22.30
12.24
1.09
-10.83
-23.06
-35.13
-46.67
-57.49
-67.69
-77.59
-87.79
-99.08
-112.24
-127.71
-144.91
-161.96
-175.56
-181.81
-177.29
-160.41
-132.13
-95.71
-55.72
-16.59
18.57
48.34
72.76
92.47
108.10
119.86
127.71
131.66
132.05
129.60
125.21
119.67
113.54
107.08
100.42
93.72
87.22
81.17
75.71
70.71
65.80
60.43
54.13
46.65
38.00
28.35
17.93
6.91
-4.63
-16.58
-28.75
-40.80
-52.35
-63.14
-73.18
-82.88
-93.03
-104.70
-118.73
-135.24
-153.12
-169.75
-181.42
-184.24
-175.45
-154.47
-123.22
-85.53
-46.01
-8.65
24.06
51.29
73.47
91.53
106.29
118.11
126.95
132.63
135.08
134.50
131.42
126.50
120.40
113.64
106.56
99.37
92.24
85.29
78.60
72.17
65.87
59.48
52.76
45.49
37.43
28.41
18.35
7.37
-4.20
-15.84
-27.01
-37.25
-46.34
-54.38
-61.76
-69.20
-77.64
-88.15
-101.38
-117.10
-133.70
-148.14
-156.66
-155.92
-144.27
-122.49
-93.58
-61.64
-30.57
-2.88
20.53
39.95
56.09
69.39
79.75
86.85
90.46
90.71
88.22
83.72
77.87
70.99
63.08
53.99
43.77
32.84
22.09
12.77
6.01
2.42
1.77
2.93
4.16
3.68
0.21
-6.61
-16.18
-27.23
-38.30
-48.22
-56.49
-63.34
-69.61
-76.49
-85.15
-96.33
-109.95
-124.71
-138.14
-146.91
-147.67
-138.23
-118.28
-89.73
-56.06
-21.25
11.38
39.84
63.49
82.52
97.37
108.38
115.81
120.03
121.67
121.57
120.45
118.72
116.32
112.93
108.31
102.58
96.40
90.78
86.70
84.59
84.10
84.05
82.85
79.10
71.98
61.55
48.59
34.16
19.17
4.04
-11.32
-27.40
-44.79
-63.94
-84.82
-106.54
-127.18
-143.89
-153.44
-153.14
-141.85
-120.55
-92.16
-60.70
-30.08
-3.11
18.96
36.16
49.22
58.94
65.87
70.38
72.80
73.58
73.22
72.07
70.22
67.50
63.66
58.66
52.81
46.84
41.61
37.78
35.47
34.17
32.89
30.68
27.09
22.39
17.49
13.55
11.39
11.09
11.84
12.08
9.96
3.92
-6.60
-20.68
-35.74
-47.95
-53.21
-48.44
-32.61
-7.14
24.68
58.87
92.05
122.31
149.38
174.14
197.88
221.50
245.02
267.28
286.06
298.51
301.97
294.76
276.86
249.83
216.44
179.81
142.54
106.29
71.66
38.36
5.41
-28.48
-64.62
-103.83
-145.97
-189.54
-231.89
-269.83
-300.66
-323.25
-338.45
-348.80
-357.49
-366.95
-377.72
-388.02
-394.23
-392.10
-378.20
-351.14
-312.01
-264.02
-211.52
-158.68
-108.52
-62.43
-20.36
18.49
54.88
89.04
120.55
148.68
172.80
192.56
208.00
219.20
226.17
228.87
227.45
222.52
215.25
207.13
199.35
192.27
185.10
176.15
163.48
145.73
122.75
95.65
66.37
36.87
8.32
-19.28
-46.93
-76.02
-107.42
-140.71
-173.94
-203.88
-226.95
-240.12
-241.90
-232.71
-214.83
-191.75
-167.23
-144.41
-125.13
-109.85
-97.98
-88.47
-80.43
-73.40
-67.37
-62.46
-58.65
-55.63
-52.92
-50.11
-47.09
-43.96
-40.86
-37.68
-34.01
-29.32
-23.30
-16.17
-8.78
-2.37
1.89
3.37
2.17
-0.96
-4.97
-8.90
-12.24
-15.01
-17.79
-21.62
-27.72
-37.14
-50.21
-65.97
-82.09
-95.20
-101.84
-99.59
-87.92
-68.32
-43.82
-17.94
6.22
26.68
42.59
54.11
62.05
67.54
71.74
75.59
79.45
82.94
85.12
84.98
82.06
77.00
71.83
69.60
73.66
86.65
109.60
141.45
179.15
218.43
254.83
284.84
306.59
320.01
326.31
327.07
323.36
315.13
301.37
280.65
252.12
216.15
174.52
129.86
84.86
41.32
-0.37
-41.04
-82.35
-126.37
-175.28
-230.96
-294.16
-363.29
-433.65
-497.72
-547.04
-574.99
-579.21
-562.34
-530.67
-491.50
-450.61
-411.14
-374.09
-339.66
-308.20
-280.33
-256.01
-233.91
-211.47
-185.93
-155.68
-120.91
-83.61
-46.87
-13.70
13.73
34.50
48.82
57.62
61.91
62.33
58.89
51.08
38.54
22.03
4.00
-11.06
-17.48
-10.20
13.12
50.37
94.30
133.80
156.98
155.36
127.49
80.36
27.39
-16.12
-38.28
-34.15
-6.27
37.77
88.84
139.20
183.61
218.95
243.39
256.08
257.46
249.91
237.47
224.92
216.33
213.85
217.58
226.18
237.69
250.33
262.89
274.57
284.91
293.61
300.57
305.98
310.50
315.17
321.41
330.81
344.73
363.82
387.45
413.25
437.41
455.39
463.36
459.39
444.09
420.08
390.69
358.47
324.25
287.27
246.08
199.69
148.36
93.56
37.39
-18.21
-72.03
-123.89
-174.42
-224.84
-276.50
-330.39
-386.06
-440.82
-489.71
-526.50
-546.35
-548.33
-536.85
-520.96
-511.54
-517.75
-543.91
-588.25
-643.39
-698.60
-742.56
-766.18
-764.49
-737.34
-688.67
-624.72
-551.81
-474.67
-396.03
-317.35
-239.99
-165.57
-95.64
-30.63
30.76
91.15
153.50
220.08
292.17
370.00
452.50
536.82
617.87
688.57
741.56
771.62
777.64
763.17
734.91
700.06
663.98
629.27
596.46
564.75
533.99
505.06
478.93
455.45
432.99
409.34
382.99
353.91
322.78
291.31
261.41
234.39
210.27
187.86
165.57
142.37
118.17
92.19
64.70
37.21
11.86
-10.04
-28.51
-44.39
-58.57
-71.44
-87.58
-109.60
-136.27
-163.14
-186.19
-203.77
-216.22
-224.62
-230.00
-242.64
-269.27
-308.33
-351.14
-389.22
-418.44
-438.63
-451.34
-458.42
-476.78
-517.66
-579.12
-647.48
-709.49
-758.68
-795.06
-821.52
-841.65
-878.61
-948.14
-1048.63
-1162.79
-1273.71
-1372.92
-1460.04
-1538.08
-1484.90
-1241.93
-847.46
-410.84
-25.26
272.04
485.67
635.41
742.06
822.04
866.64
869.73
832.72
779.66
731.92
700.60
686.94
687.87
698.93
700.25
677.70
630.83
571.92
512.48
463.55
427.11
401.49
383.58
360.28
322.15
268.78
208.81
151.30
101.98
62.10
30.85
6.16
-19.36
-51.70
-92.64
-139.69
-190.01
-241.08
-290.55
-334.15
-366.04
-382.37
-381.37
-364.02
-333.74
-296.22
-257.05
-220.20
-186.77
-156.14
-127.65
-101.61
-79.02
-60.43
-45.25
-31.44
-16.74
0.57
20.96
43.77
67.32
89.27
106.82
117.19
118.42
110.35
95.18
76.79
59.27
45.33
35.45
28.34
22.46
17.36
14.07
14.35
19.22
28.04
38.51
47.81
53.87
56.18
55.47
52.89
49.22
44.19
36.64
25.13
8.54
-13.51
-40.64
-71.90
-105.86
-140.59
-173.52
-201.78
-222.71
-234.74
-237.95
-233.97
-225.28
-214.26
-202.47
-190.62
-179.03
-168.14
-158.67
-151.25
-145.94
-141.83
-137.38
-131.06
-122.07
-110.76
-98.30
-86.22
-75.66
-66.96
-59.62
-52.68
-45.13
-36.43
-26.62
-16.31
-6.41
2.32
9.49
15.29
20.46
25.97
32.67
40.97
50.69
61.12
71.37
80.80
89.37
97.77
107.18
118.82
133.42
150.84
170.18
190.13
209.57
228.04
245.90
264.21
284.49
308.55
338.07
373.95
415.24
458.27
496.65
522.67
529.75
514.96
480.24
431.65
376.92
322.69
272.76
228.09
188.25
153.18
124.07
103.14
92.47
92.98
103.89
123.08
147.55
174.03
199.27
220.11
233.57
237.15
229.35
210.21
181.53
146.67
109.79
74.80
44.49
19.97
0.78
-14.54
-27.76
-40.35
-53.04
-65.90
-78.47
-90.08
-100.05
-107.97
-113.81
-118.02
-121.36
-124.70
-128.70
-133.49
-138.66
-143.38
-146.78
-148.34
-148.14
-146.91
-145.79
-146.01
-148.46
-153.38
-160.08
-166.88
-171.24
-170.29
-161.70
-144.62
-120.19
-91.43
-62.35
-36.66
-16.58
-2.53
6.49
11.97
15.08
16.30
15.65
13.17
9.25
4.63
0.03
-4.10
-7.75
-11.21
-14.83
-18.76
-22.89
-27.02
-30.92
-34.59
-38.23
-42.16
-46.75
-52.09
-58.02
-64.11
-69.89
-75.19
-80.32
-86.15
-93.77
-103.94
-116.50
-130.08
-142.22
-149.96
-150.70
-143.02
-127.07
-104.58
-78.26
-51.08
-25.56
-3.36
14.82
29.00
39.66
47.39
52.76
56.25
58.18
58.80
58.25
56.67
54.22
51.16
47.87
44.86
42.63
41.47
41.28
41.54
41.31
39.59
35.60
29.12
20.54
10.67
0.44
-9.53
-19.16
-28.88
-39.56
-52.10
-67.10
-84.63
-104.00
-123.75
-141.87
-156.22
-165.16
-168.10
-165.83
-160.35
-154.24
-149.86
-148.55
-150.42
-154.63
-159.94
-165.17
-169.38
-171.70
-171.14
-166.64
-157.49
-143.85
-127.00
-108.98
-91.78
-76.41
-62.47
-48.52
-32.88
-14.72
5.50
26.37
46.23
64.21
80.66
97.01
115.25
137.28
164.50
197.51
235.78
277.10
317.50
351.82
375.35
385.71
384.19
375.38
365.23
358.46
356.56
357.59
357.58
352.69
340.77
321.76
296.91
267.69
235.11
199.64
161.63
121.79
81.30
41.90
5.42
-26.64
-53.55
-75.47
-93.17
-107.46
-118.66
-126.41
-130.02
-129.17
-124.44
-117.39
-109.99
-103.76
-99.18
-95.57
-91.61
-86.09
-78.59
-69.76
-60.97
-53.75
-48.89
-45.95
-43.01
-37.18
-25.42
-5.57
22.92
58.67
98.67
138.98
175.67
205.62
227.07
239.78
244.72
243.40
237.23
227.01
212.95
194.90
172.67
146.15
115.14
79.41
38.98
-5.23
-50.85
-94.21
-131.36
-159.51
-178.12
-189.15
-195.95
-201.93
-209.30
-218.85
-230.48
-244.00
-259.70
-278.31
-300.60
-326.76
-356.04
-386.51
-415.23
-438.67
-453.43
-457.18
-449.35
-431.35
-406.09
-376.95
-346.84
-317.51
-289.67
-263.35
-238.48
-215.11
-193.33
-173.06
-153.91
-135.21
-116.29
-96.75
-76.58
-56.19
-36.16
-17.00
1.04
18.09
34.58
51.06
67.99
85.53
103.55
121.80
140.23
159.11
178.83
199.47
220.28
239.49
254.74
263.80
265.37
259.38
246.84
229.27
208.34
185.77
163.69
144.75
131.98
127.93
133.80
148.84
170.55
195.50
220.43
243.11
262.58
278.87
292.39
303.42
311.87
317.34
319.33
317.61
312.29
303.91
293.24
281.08
267.96
254.02
238.98
222.38
203.89
183.48
161.54
138.66
115.42
92.21
69.08
45.96
22.78
-0.31
-22.91
-44.42
-64.22
-81.84
-97.08
-110.14
-121.50
-131.84
-141.75
-151.41
-160.27
-167.04
-169.93
-167.16
-157.60
-141.21
-119.11
-93.25
-65.84
-38.75
-13.17
10.38
31.84
51.34
68.86
84.24
97.18
107.39
114.73
119.22
121.08
120.55
117.96
113.64
108.00
101.57
94.95
88.78
83.47
79.22
75.89
73.13
70.46
67.34
63.23
57.54
49.84
39.93
28.09
15.01
1.69
-10.90
-22.16
-31.96
-40.60
-48.66
-56.71
-65.21
-74.40
-84.07
-93.45
-101.05
-104.78
-102.47
-92.48
-74.42
-49.37
-19.73
11.40
41.02
66.80
87.33
102.11
111.35
115.78
116.44
114.54
111.26
107.52
103.89
100.57
97.46
94.38
91.18
87.79
84.22
80.48
76.54
72.26
67.41
61.69
54.81
46.61
37.13
26.62
15.45
3.92
-7.80
-19.74
-31.96
-44.43
-57.00
-69.48
-81.88
-94.46
-107.84
-122.65
-139.29
-157.63
-176.92
-195.85
-212.76
-225.85
-233.45
-234.33
-228.03
-215.05
-196.92
-175.84
-154.17
-133.84
-115.93
-100.65
-87.68
-76.56
-67.17
-59.72
-54.67
-52.34
-52.76
-55.50
-59.88
-65.06
-70.30
-74.95
-78.55
-80.79
-81.52
-80.80
-78.88
-76.15
-73.06
-70.04
-67.44
-65.49
-64.34
-64.08
-64.75
-66.44
-69.22
-73.19
-78.34
-84.53
-91.51
-98.87
-106.25
-113.42
-120.40
-127.45
-134.86
-142.64
-150.19
-156.04
-158.00
-153.65
-141.10
-119.72
-90.49
-55.84
-18.96
17.03
49.80
78.09
101.66
120.83
136.08
147.85
156.41
162.04
165.11
166.09
165.50
163.69
160.76
156.54
150.77
143.23
133.99
123.41
111.98
100.14
88.12
75.93
63.45
50.59
37.35
23.82
10.14
-3.58
-17.22
-30.61
-43.50
-55.60
-66.59
-76.34
-84.99
-92.97
-101.06
-110.13
-120.76
-132.90
-145.53
-156.65
-163.70
-164.33
-157.19
-142.44
-121.69
-97.54
-72.75
-49.59
-29.40
-12.61
0.97
11.88
20.71
27.94
33.93
38.90
43.01
46.41
49.22
51.60
53.71
55.67
57.54
59.33
60.90
62.05
62.48
61.93
60.24
57.36
53.32
48.20
42.02
34.85
26.86
18.42
10.05
2.29
-4.44
-10.10
-15.04
-19.94
-25.61
-32.79
-41.88
-52.73
-64.49
-75.62
-84.10
-87.83
-85.21
-75.69
-59.89
-39.54
-16.97
5.54
26.20
44.04
58.79
70.68
80.12
87.45
92.94
96.77
99.17
100.39
100.69
100.21
98.99
96.95
94.07
90.48
86.49
82.56
79.09
76.19
73.67
71.03
67.65
63.04
56.95
49.48
41.00
31.96
22.81
13.76
4.78
-4.46
-14.51
-25.97
-39.40
-54.92
-72.05
-89.47
-105.22
-117.00
-122.80
-121.47
-113.04
-98.68
-80.25
-59.78
-38.98
-19.04
-0.66
15.82
30.24
42.59
53.00
61.73
69.18
75.69
81.52
86.76
91.38
95.28
98.36
100.70
102.45
103.88
105.22
106.45
107.28
107.14
105.37
101.43
95.18
86.94
77.42
67.48
57.86
48.89
40.44
31.88
22.33
10.91
-2.92
-19.20
-37.33
-56.14
-74.16
-89.83
-101.87
-109.46
-112.36
-110.90
-105.73
-97.68
-87.58
-76.14
-64.00
-51.70
-39.80
-28.76
-18.91
-10.43
-3.30
2.64
7.61
11.85
15.52
18.77
21.74
24.60
27.46
30.37
33.22
35.74
37.51
38.10
37.21
34.83
31.27
27.09
22.83
18.82
15.04
11.12
6.51
0.61
-6.91
-16.02
-26.16
-36.28
-44.95
-50.58
-51.85
-47.96
-39.00
-25.93
-10.45
5.46
19.92
31.60
39.85
44.70
46.63
46.34
44.39
41.19
36.90
31.50
24.96
17.20
8.19
-1.95
-12.97
-24.34
-35.35
-45.28
-53.63
-60.43
-66.25
-71.98
-78.43
-86.00
-94.45
-103.08
-111.03
-117.63
-122.59
-126.09
-128.61
-130.95
-134.00
-138.63
-145.32
-153.82
-162.87
-170.35
-173.70
-170.76
-160.47
-143.33
-121.16
-96.52
-71.94
-49.22
-29.24
-12.07
2.67
15.26
25.79
34.13
40.11
43.74
45.29
45.22
43.99
41.88
39.01
35.37
31.05
26.30
21.49
16.90
12.52
7.90
2.30
-5.11
-14.92
-27.26
-41.78
-57.78
-74.48
-91.33
-108.20
-125.37
-143.44
-163.11
-184.91
-208.95
-234.71
-260.92
-285.60
-306.29
-320.54
-326.47
-323.37
-311.91
-294.01
-272.29
-249.42
-227.49
-207.76
-190.73
-176.39
-164.52
-154.82
-146.96
-140.56
-135.19
-130.47
-126.13
-122.08
-118.33
-114.89
-111.67
-108.42
-104.83
-100.62
-95.66
-89.97
-83.65
-76.76
-69.25
-60.92
-51.53
-40.94
-29.17
-16.46
-3.08
10.81
25.31
40.83
57.92
77.06
98.41
121.78
146.71
172.70
199.43
226.87
255.29
285.24
317.49
353.01
392.63
436.42
483.00
529.19
570.39
601.65
619.22
621.59
609.72
586.33
554.70
517.71
477.50
435.72
393.96
353.90
317.04
284.12
254.86
228.10
202.34
176.44
150.04
123.50
97.62
73.09
50.11
28.34
7.13
-14.12
-35.71
-57.56
-79.45
-101.29
-123.36
-146.25
-170.57
-196.56
-223.66
-250.53
-275.23
-295.60
-309.66
-315.93
-313.56
-302.47
-283.39
-257.75
-227.50
-194.72
-161.24
-128.40
-97.06
-67.76
-40.96
-17.15
3.28
20.24
34.15
45.76
55.87
64.99
73.17
80.14
85.48
88.97
90.69
90.88
89.78
87.49
83.86
78.66
71.73
63.14
53.18
42.30
30.92
19.30
7.53
-4.49
-16.93
-29.93
-43.47
-57.26
-70.43
-81.47
-88.18
-88.10
-79.22
-60.74
-33.56
-0.29
35.50
70.23
101.18
126.90
147.09
162.00
171.99
177.26
177.98
174.47
167.49
158.16
147.82
137.66
128.40
120.06
112.07
103.46
93.43
81.70
68.66
55.16
42.03
29.53
17.18
4.02
-10.77
-27.34
-44.86
-61.88
-76.91
-89.12
-98.72
-106.83
-114.97
-124.30
-135.05
-146.23
-155.75
-161.01
-159.64
-150.20
-132.58
-108.01
-78.69
-47.16
-15.76
13.71
40.10
62.75
81.26
95.38
105.05
110.39
111.80
109.84
105.14
98.21
89.36
78.73
66.41
52.65
37.88
22.75
7.91
-6.20
-19.48
-32.11
-44.41
-56.54
-68.33
-79.29
-88.71
-95.98
-100.84
-103.49
-104.67
-105.45
-106.99
-110.16
-115.08
-120.83
-125.48
-126.51
-121.57
-109.39
-90.25
-66.05
-39.62
-13.85
9.17
28.49
44.23
57.03
67.53
76.02
82.48
86.78
88.92
89.13
87.79
85.26
81.73
77.28
71.98
66.07
59.98
54.27
49.28
45.02
41.06
36.70
31.27
24.44
16.38
7.71
-0.79
-8.44
-15.00
-20.75
-26.45
-33.08
-41.49
-51.94
-63.77
-75.32
-84.28
-88.24
-85.52
-75.75
-60.03
-40.50
-19.70
0.27
18.12
33.43
46.32
57.04
65.71
72.29
76.75
79.22
80.09
79.85
78.99
77.76
76.22
74.29
71.91
69.20
66.51
64.24
62.68
61.74
60.86
59.01
55.01
47.83
36.99
22.71
5.92
-11.96
-29.40
-45.17
-58.58
-69.63
-78.93
-87.39
-95.84
-104.59
-113.16
-120.21
-123.88
-122.33
-114.45
-100.34
-81.35
-59.68
-37.69
-17.19
0.83
16.17
29.08
39.85
48.61
55.37
60.20
63.36
65.32
66.60
67.60
68.44
68.95
68.83
67.86
66.00
63.53
60.84
58.36
56.29
54.48
52.52
49.84
45.99
40.75
34.28
27.01
19.48
12.15
5.22
-1.38
-7.97
-15.09
-23.29
-33.03
-44.55
-57.59
-71.30
-84.22
-94.45
-100.14
-100.11
-94.20
-83.38
-69.41
-54.21
-39.34
-25.70
-13.58
-3.01
5.96
13.11
18.19
21.21
22.50
22.71
22.59
22.71
23.36
24.63
26.55
29.23
32.85
37.54
43.19
49.32
55.04
59.29
61.00
59.46
54.43
46.36
36.20
25.21
14.57
4.95
-3.66
-11.92
-20.92
-31.82
-45.39
-61.74
-80.05
-98.63
-115.07
-126.79
-131.62
-128.43
-117.43
-100.14
-78.84
-55.97
-33.43
-12.31
7.12
25.11
42.00
57.89
72.48
85.17
95.23
102.11
105.64
105.96
103.46
98.49
91.23
81.77
70.19
56.68
41.64
25.61
9.19
-6.87
-21.69
-34.24
-43.56
-49.09
-50.98
-50.05
-47.60
-44.85
-42.65
-41.27
-40.67
-40.78
-41.79
-44.24
-48.74
-55.56
-64.24
-73.39
-80.88
-84.39
-82.12
-73.52
-59.47
-42.13
-24.11
-7.71
5.72
15.89
23.22
28.39
31.81
33.64
33.80
32.34
29.54
25.93
22.05
18.32
14.85
11.52
8.21
4.83
1.44
-1.85
-5.03
-8.32
-12.16
-17.09
-23.55
-31.71
-41.37
-51.99
-62.81
-73.09
-82.23
-89.98
-96.39
-101.79
-106.74
-111.87
-117.77
-124.77
-132.79
-141.17
-148.59
-153.39
-153.87
-148.86
-138.17
-122.67
-104.10
-84.50
-65.51
-48.01
-32.10
-17.40
-3.64
9.09
20.33
29.53
36.45
41.27
44.41
46.34
47.31
47.42
46.89
46.14
45.73
46.12
47.25
48.47
48.68
46.80
42.12
34.59
24.82
13.89
3.06
-6.48
-14.00
-19.31
-22.96
-25.98
-29.58
-34.51
-40.68
-46.93
-51.36
-51.95
-47.29
-37.21
-22.78
-6.04
10.71
25.62
37.69
46.84
53.58
58.56
62.24
64.75
66.05
66.13
65.16
63.40
61.10
58.38
55.19
51.45
47.20
42.73
38.48
34.89
32.22
30.36
28.86
27.07
24.40
20.47
15.33
9.37
3.29
-2.21
-6.66
-10.01
-12.68
-15.52
-19.44
-25.12
-32.59
-41.04
-48.81
-53.78
-54.01
-48.28
-36.65
-20.37
-1.59
17.38
34.64
49.08
60.42
68.92
75.06
79.22
81.60
82.32
81.49
79.38
76.41
72.99
69.38
65.59
61.41
56.56
50.97
44.86
38.73
33.10
28.31
24.24
20.33
15.79
9.89
2.24
-6.99
-17.14
-27.27
-36.49
-44.31
-50.81
-56.59
-62.65
-69.95
-79.16
-90.32
-102.69
-114.80
-124.76
-130.63
-131.02
-125.50
-114.70
-100.17
-83.86
-67.54
-52.43
-39.06
-27.49
-17.57
-9.18
-2.23
3.47
8.27
12.72
17.36
22.49
28.01
33.46
38.21
41.75
43.92
44.93
45.23
45.36
45.65
46.18
46.69
46.69
45.58
42.84
38.15
31.57
23.57
14.84
6.10
-2.23
-10.22
-18.39
-27.52
-38.17
-50.30
-62.95
-74.34
-82.20
-84.44
-79.77
-68.13
-50.73
-29.69
-7.43
13.92
32.95
49.07
62.25
72.70
80.64
86.22
89.60
91.03
90.88
89.52
87.14
83.66
78.82
72.40
64.48
55.50
46.18
37.29
29.27
22.18
15.69
9.33
2.82
-3.77
-10.02
-15.30
-19.06
-21.09
-21.56
-21.01
-20.23
-20.05
-21.29
-24.54
-30.13
-37.85
-46.90
-55.86
-62.96
-66.51
-65.45
-59.76
-50.50
-39.50
-28.75
-19.75
-13.12
-8.57
-5.25
-2.26
0.93
4.27
7.33
9.57
10.72
10.85
10.30
9.39
8.29
6.92
5.17
3.09
0.94
-0.82
-1.83
-2.03
-1.78
-1.74
-2.62
-4.82
-8.29
-12.51
-16.72
-20.17
-22.48
-23.70
-24.41
-25.43
-27.67
-31.81
-38.01
-45.79
-53.95
-60.76
-64.37
-63.30
-56.89
-45.59
-30.76
-14.27
2.02
16.75
29.23
39.29
47.10
52.83
56.65
58.68
59.22
58.67
57.58
56.35
55.16
53.88
52.19
49.83
46.75
43.22
39.74
36.79
34.64
33.24
32.16
30.80
28.59
25.13
20.40
14.69
8.60
2.77
-2.33
-6.53
-10.07
-13.50
-17.48
-22.55
-28.89
-36.02
-42.84
-47.64
-48.57
-44.09
-33.64
-17.83
1.57
22.14
41.51
57.96
70.75
79.98
86.30
90.47
93.04
94.24
94.06
92.33
88.85
83.42
75.97
66.60
55.66
43.79
31.76
20.38
10.16
1.27
-6.63
-14.21
-22.33
-31.70
-42.75
-55.42
-69.16
-82.95
-95.60
-106.04
-113.63
-118.37
-120.87
-122.11
-123.09
-124.61
-126.98
-130.04
-133.08
-134.92
-134.08
-129.09
-118.95
-103.51
-83.67
-61.25
-38.44
-17.24
1.08
16.07
27.97
37.32
44.65
50.27
54.38
57.17
58.92
60.02
60.79
61.36
61.62
61.31
60.21
58.33
55.96
53.49
51.24
49.22
47.11
44.39
40.59
35.48
29.20
22.25
15.27
8.85
3.26
-1.61
-6.20
-11.16
-17.17
-24.66
-33.66
-43.63
-53.42
-61.37
-65.67
-64.91
-58.46
-46.80
-31.39
-14.25
2.68
17.99
31.01
41.72
50.37
57.21
62.37
65.91
68.01
69.04
69.45
69.68
69.93
70.13
70.05
69.52
68.57
67.48
66.62
66.18
65.93
65.18
62.88
57.91
49.44
37.22
21.61
3.63
-15.37
-33.97
-51.10
-66.18
-79.27
-90.82
-101.44
-111.48
-120.67
-128.05
-132.14
-131.47
-125.11
-113.15
-96.69
-77.59
-57.82
-38.94
-21.87
-6.86
6.15
17.32
26.68
34.22
39.97
44.12
46.99
48.95
50.27
51.12
51.52
51.48
51.09
50.54
50.13
50.11
50.53
51.22
51.79
51.79
50.85
48.89
46.06
42.67
39.03
35.28
31.32
26.93
21.83
15.75
8.45
-0.35
-10.89
-23.28
-37.01
-50.87
-62.91
-71.06
-73.89
-71.27
-64.35
-54.90
-44.51
-34.17
-24.45
-16.09
-10.28
-8.36
-10.97
-17.37
-25.48
-32.83
-37.67
-39.79
-40.24
-40.36
-40.72
-40.85
-39.65
-36.30
-30.99
-24.94
-19.86
-17.13
-17.29
-19.97
-24.11
-28.48
-32.00
-33.95
-33.92
-31.89
-28.50
-25.20
-24.32
-28.53
-39.85
-58.69
-83.35
-110.39
-135.68
-155.68
-168.19
-172.49
-168.88
-157.97
-140.32
-116.39
-86.80
-52.71
-15.93
21.09
55.69
85.37
108.32
123.79
132.21
135.08
134.52
132.70
131.42
131.83
134.44
139.31
146.25
155.01
165.27
176.60
188.30
199.52
209.40
217.32
223.17
227.18
229.69
230.80
230.20
227.36
221.77
213.27
202.19
189.18
175.04
160.43
145.71
131.00
116.37
102.00
88.40
76.34
66.68
59.99
56.41
55.52
56.57
58.72
61.31
64.01
66.62
68.96
70.65
71.14
69.88
66.54
61.10
53.83
45.07
35.09
24.00
11.88
-1.02
-14.18
-27.00
-39.10
-50.58
-62.09
-74.41
-87.98
-102.47
-116.81
-129.61
-139.71
-146.67
-150.90
-153.35
-155.12
-157.07
-159.63
-162.74
-166.02
-168.78
-170.19
-169.38
-165.68
-158.76
-148.79
-136.41
-122.61
-108.47
-94.93
-82.66
-71.93
-62.74
-54.88
-48.11
-42.20
-36.99
-32.40
-28.43
-25.14
-22.65
-21.08
-20.42
-20.51
-20.95
-21.32
-21.27
-20.75
-20.07
-19.76
-20.33
-22.02
-24.72
-28.01
-31.43
-34.64
-37.55
-40.30
-43.13
-46.30
-50.02
-54.33
-59.10
-63.94
-68.13
-70.75
-70.95
-68.13
-62.29
-54.00
-44.28
-34.21
-24.69
-16.16
-8.73
-2.27
3.37
8.26
12.37
15.66
18.15
19.93
21.13
21.88
22.29
22.40
22.22
21.79
21.23
20.66
20.20
19.93
19.83
19.81
19.72
19.45
18.91
18.09
17.00
15.64
14.04
12.18
10.02
7.55
4.68
1.30
-2.75
-7.55
-13.10
-19.05
-24.75
-29.29
-31.73
-31.44
-28.31
-22.77
-15.70
-8.12
-0.83
5.70
11.35
16.23
20.47
24.10
27.07
29.28
30.66
31.27
31.27
30.85
30.15
29.20
27.97
26.40
24.52
22.45
20.45
18.79
17.57
16.60
15.42
13.37
9.89
4.76
-1.80
-9.23
-16.88
-24.30
-31.34
-38.17
-45.04
-52.20
-59.77
-67.81
-76.29
-85.06
-93.74
-101.59
-107.60
-110.78
-110.51
-106.81
-100.31
-92.03
-83.02
-74.07
-65.64
-58.04
-51.53
-46.52
-43.41
-42.39
-43.24
-45.26
-47.50
-49.11
-49.77
-49.83
-50.21
-51.97
-55.72
-61.34
-67.96
-74.45
-80.04
-84.83
-89.86
-96.70
-106.82
-120.96
-138.82
-159.10
-179.61
-197.54
-209.78
-213.72
-208.28
-194.82
-177.23
-160.86
-150.47
-148.16
-152.33
-158.34
-160.56
-154.73
-139.47
-116.31
-88.40
-58.85
-29.70
-1.71
24.99
50.16
73.06
92.64
108.01
119.06
126.56
131.98
136.75
141.68
146.54
150.28
151.69
150.08
145.76
139.87
133.74
128.11
122.56
115.73
105.88
91.77
73.17
50.98
26.76
2.24
-21.20
-42.60
-61.46
-77.59
-91.10
-102.34
-111.73
-119.41
-124.81
-126.57
-122.83
-112.06
-93.79
-69.13
-40.51
-10.92
17.06
41.93
63.38
81.84
97.96
112.05
124.03
133.59
140.45
144.60
146.30
145.99
144.17
141.21
137.37
132.85
127.92
122.93
118.22
114.03
110.32
106.71
102.61
97.51
91.18
83.81
75.93
68.16
60.79
53.61
45.88
36.52
24.53
9.52
-7.90
-26.05
-42.43
-54.39
-59.88
-58.11
-49.75
-36.63
-21.06
-5.09
9.98
23.68
36.16
47.78
58.75
68.96
78.07
85.70
91.56
95.58
97.89
98.68
98.21
96.70
94.47
91.92
89.55
87.75
86.57
85.63
84.11
81.06
75.83
68.39
59.34
49.69
40.46
32.27
25.12
18.52
11.60
3.43
-6.65
-18.77
-32.21
-45.29
-55.57
-60.49
-58.21
-48.35
-32.21
-12.43
7.86
26.03
40.54
51.07
58.07
62.24
64.11
63.93
61.84
58.11
53.21
47.77
42.27
36.92
31.59
26.01
20.06
13.88
7.94
2.74
-1.47
-4.87
-8.13
-12.09
-17.42
-24.32
-32.42
-40.92
-48.93
-55.74
-61.12
-65.38
-69.23
-73.59
-79.22
-86.30
-94.17
-101.25
-105.28
-103.94
-95.66
-80.18
-58.80
-34.00
-8.68
14.73
34.80
51.20
64.36
74.92
83.29
89.54
93.55
95.24
94.81
92.72
89.56
85.82
81.76
77.46
72.89
68.16
63.53
59.32
55.75
52.73
49.84
46.48
42.08
36.36
29.42
21.68
13.70
6.01
-1.11
-7.68
-14.04
-20.77
-28.53
-37.81
-48.63
-60.31
-71.47
-80.27
-84.90
-84.20
-78.07
-67.59
-54.73
-41.72
-30.44
-21.96
-16.45
-13.40
-12.01
-11.42
-10.94
-9.98
-8.07
-4.88
-0.31
5.42
11.71
17.71
22.49
25.40
26.26
25.41
23.61
21.72
20.35
19.60
19.05
17.96
15.61
11.62
6.11
-0.29
-6.74
-12.42
-16.80
-19.79
-21.76
-23.47
-25.87
-29.85
-35.89
-43.76
-52.35
-59.78
-63.83
-62.58
-55.01
-41.46
-23.53
-3.63
15.71
32.62
46.16
56.39
63.92
69.51
73.65
76.40
77.50
76.58
73.38
67.90
60.42
51.43
41.53
31.33
21.39
12.21
4.23
-2.29
-7.27
-10.85
-13.40
-15.41
-17.34
-19.52
-22.00
-24.58
-26.87
-28.46
-29.06
-28.69
-27.64
-26.48
-25.84
-26.37
-28.56
-32.65
-38.55
-45.63
-52.68
-57.97
-59.63
-56.20
-47.16
-33.23
-16.17
1.74
18.42
32.56
43.77
52.29
58.54
62.71
64.64
64.07
60.91
55.53
48.78
41.63
34.87
28.78
23.11
17.25
10.61
2.90
-5.80
-15.06
-24.27
-32.75
-39.86
-45.10
-48.25
-49.41
-49.13
-48.14
-47.23
-46.89
-47.30
-48.32
-49.69
-51.30
-53.20
-55.62
-58.73
-62.45
-66.19
-68.86
-69.00
-65.12
-56.23
-42.15
-23.71
-2.49
19.58
40.75
59.75
75.79
88.39
97.11
101.51
101.27
96.42
87.51
75.54
61.72
47.09
32.45
18.21
4.67
-7.87
-18.95
-27.97
-34.36
-37.73
-38.08
-35.81
-31.71
-26.82
-22.18
-18.62
-16.48
-15.61
-15.42
-15.24
-14.60
-13.46
-12.25
-11.69
-12.57
-15.40
-20.26
-26.55
-33.03
-37.99
-39.67
-36.76
-28.94
-17.13
-3.25
10.28
21.26
28.28
30.98
29.93
26.30
21.38
16.27
11.71
7.96
4.98
2.57
0.50
-1.35
-2.93
-4.03
-4.34
-3.57
-1.51
1.85
6.34
11.64
17.30
22.85
27.82
31.82
34.61
36.15
36.53
35.92
34.29
31.31
26.27
18.31
6.69
-8.89
-28.10
-50.03
-73.25
-95.98
-116.16
-131.68
-140.72
-142.19
-136.08
-123.50
-106.37
-86.81
-66.61
-46.91
-28.20
-10.64
5.72
20.73
34.17
45.84
55.65
63.66
70.11
75.35
79.78
83.78
87.55
91.15
94.48
97.50
100.23
102.71
104.74
105.63
104.16
98.82
88.35
72.32
51.39
27.18
1.79
-22.83
-45.30
-64.96
-81.71
-95.80
-107.59
-117.48
-125.78
-132.64
-137.80
-140.56
-139.79
-134.34
-123.47
-107.34
-87.02
-64.28
-41.00
-18.66
1.90
20.42
36.91
51.29
63.30
72.56
78.82
82.17
83.06
82.19
80.27
77.82
75.17
72.43
69.58
66.58
63.29
59.44
54.52
47.84
38.68
26.61
11.80
-4.88
-22.00
-37.97
-51.52
-62.08
-69.90
-75.93
-81.56
-88.14
-96.60
-106.98
-118.15
-127.90
-133.41
-132.07
-122.51
-105.06
-81.76
-55.54
-29.28
-5.00
16.41
34.86
50.55
63.53
73.57
80.42
84.09
85.06
84.14
82.30
80.30
78.50
76.81
74.77
71.82
67.41
61.23
53.20
43.43
32.12
19.46
5.59
-9.19
-24.36
-39.08
-52.22
-62.68
-69.72
-73.28
-74.19
-73.93
-74.22
-76.40
-80.86
-86.73
-92.02
-94.17
-90.89
-80.87
-64.25
-42.58
-18.24
6.28
29.07
49.15
66.36
80.95
93.15
102.89
109.75
113.23
112.99
108.97
101.40
90.70
77.37
62.05
45.56
28.97
13.56
0.51
-9.36
-15.85
-19.48
-21.25
-22.35
-23.77
-26.04
-29.10
-32.46
-35.35
-37.11
-37.45
-36.63
-35.45
-34.98
-36.17
-39.33
-43.82
-47.90
-49.25
-45.65
-35.91
-20.42
-1.22
18.59
35.82
48.11
54.50
55.37
52.00
45.91
38.40
30.33
22.24
14.46
7.25
0.86
-4.49
-8.57
-11.20
-12.23
-11.50
-8.99
-4.75
0.96
7.65
14.64
21.09
26.20
29.35
30.34
29.43
27.37
25.18
23.81
23.75
24.68
25.39
24.00
18.48
7.37
-9.58
-30.99
-54.07
-75.34
-91.54
-100.54
-101.77
-96.10
-85.33
-71.46
-56.19
-40.57
-25.17
-10.30
3.69
16.26
26.76
34.69
39.87
42.64
43.74
44.03
44.23
44.65
45.15
45.31
44.72
43.18
40.81
37.94
34.93
32.02
29.21
26.30
22.95
18.77
13.38
6.41
-2.47
-13.58
-27.16
-43.33
-62.10
-83.34
-106.75
-131.69
-156.92
-180.38
-199.22
-210.14
-210.11
-197.06
-170.52
-131.79
-83.89
-31.33
20.44
65.88
100.37
121.33
128.88
125.80
116.57
105.98
97.66
93.29
92.52
93.64
94.49
93.21
88.73
80.77
69.64
56.04
40.85
24.97
9.27
-5.40
-18.29
-28.82
-36.74
-42.21
-45.73
-47.89
-49.18
-49.70
-49.25
-47.52
-44.51
-40.64
-36.66
-33.11
-29.82
-25.54
-18.33
-6.30
11.40
33.97
59.08
83.69
105.13
121.87
133.78
141.80
147.33
151.66
155.68
159.76
163.78
167.30
169.62
170.04
168.09
163.70
157.41
150.31
143.84
139.39
137.77
138.83
141.31
143.24
142.51
137.58
127.97
114.23
97.57
79.31
60.36
41.09
21.38
0.82
-20.92
-43.79
-67.14
-89.63
-109.41
-124.47
-133.18
-134.73
-129.34
-118.30
-103.57
-87.36
-71.62
-57.60
-45.69
-35.41
-25.78
-15.76
-4.82
6.82
18.16
27.77
34.26
36.69
34.89
29.37
21.22
11.73
2.12
-6.74
-14.44
-20.99
-26.72
-32.02
-37.28
-42.68
-48.22
-53.75
-59.06
-64.04
-68.80
-73.78
-79.66
-87.17
-96.77
-108.29
-120.62
-131.76
-139.32
-141.21
-136.36
-125.17
-109.35
-91.33
-73.46
-57.38
-43.73
-32.33
-22.61
-14.15
-6.84
-0.93
3.26
5.55
6.09
5.29
3.74
1.99
0.40
-0.87
-1.91
-2.91
-4.09
-5.67
-7.80
-10.58
-14.06
-18.23
-23.05
-28.42
-34.21
-40.37
-46.95
-54.19
-62.37
-71.61
-81.55
-91.15
-98.74
-102.43
-100.77
-93.24
-80.56
-64.39
-46.82
-29.74
-14.42
-1.36
9.50
18.51
25.98
32.11
36.92
40.35
42.35
42.97
42.37
40.79
38.47
35.62
32.36
28.76
24.86
20.74
16.52
12.34
8.30
4.40
0.54
-3.40
-7.43
-11.41
-15.01
-17.93
-20.12
-21.92
-24.05
-27.36
-32.45
-39.25
-46.84
-53.57
-57.44
-56.75
-50.66
-39.54
-24.85
-8.70
6.77
19.98
30.08
36.83
40.33
40.74
38.24
33.22
26.33
18.45
10.46
2.93
-3.97
-10.42
-16.58
-22.35
-27.22
-30.52
-31.62
-30.35
-27.07
-22.61
-18.11
-14.57
-12.64
-12.38
-13.37
-14.89
-16.20
-16.84
-16.70
-15.96
-14.98
-14.11
-13.62
-13.67
-14.25
-15.06
-15.50
-14.63
-11.51
-5.58
2.93
12.85
22.39
29.75
33.95
35.24
35.07
35.36
37.73
42.66
49.32
56.01
60.96
63.14
62.62
60.36
57.66
55.44
54.02
53.14
52.43
51.77
51.35
51.41
51.86
51.98
50.58
46.40
38.79
28.00
15.24
2.18
-9.70
-19.52
-27.28
-33.64
-39.52
-45.74
-52.73
-60.55
-68.96
-77.54
-85.64
-92.32
-96.41
-96.65
-92.16
-82.81
-69.39
-53.45
-36.89
-21.30
-7.65
3.84
13.44
21.54
28.40
34.07
38.49
41.66
43.75
45.00
45.69
45.99
45.90
45.43
44.66
43.85
43.38
43.61
44.63
46.13
47.42
47.53
45.50
40.65
32.74
22.03
9.22
-4.77
-19.01
-32.72
-45.49
-57.19
-67.83
-77.24
-84.84
-89.55
-90.00
-84.98
-73.92
-57.24
-36.38
-13.40
9.49
30.48
48.52
63.28
74.91
83.61
89.41
92.04
91.10
86.25
77.41
64.89
49.34
31.79
13.56
-3.70
-18.25
-28.49
-33.43
-33.01
-28.25
-21.03
-13.57
-7.79
-4.79
-4.63
-6.52
-9.24
-11.71
-13.44
-14.72
-16.50
-19.99
-26.12
-35.07
-46.09
-57.55
-67.37
-73.68
-75.37
-72.45
-66.04
-57.94
-49.98
-43.40
-38.55
-34.96
-31.71
-27.99
-23.44
-18.25
-12.96
-8.04
-3.59
0.88
6.47
14.62
26.69
43.31
63.89
86.35
107.54
124.10
133.59
135.32
130.51
121.69
111.61
102.14
93.74
85.68
76.70
65.77
52.47
36.82
18.85
-1.70
-25.11
-50.96
-77.31
-100.63
-116.50
-121.22
-113.47
-95.06
-70.39
-44.67
-21.92
-3.77
10.57
23.14
35.74
48.89
61.79
72.96
81.19
86.09
88.12
88.06
86.51
83.50
78.57
71.16
61.12
49.02
36.06
23.65
12.93
4.39
-2.15
-7.18
-11.05
-13.79
-15.20
-15.25
-14.37
-13.57
-14.15
-17.34
-23.88
-33.84
-46.47
-60.26
-73.02
-82.08
-84.88
-79.66
-66.00
-45.02
-19.05
9.09
36.80
62.15
83.93
101.47
114.42
122.66
126.25
125.44
120.65
112.49
101.83
89.78
77.63
66.53
57.24
49.88
43.99
38.76
33.41
27.46
20.76
13.41
5.62
-2.38
-10.42
-18.31
-25.91
-33.10
-39.93
-46.62
-53.58
-61.27
-70.02
-79.65
-89.26
-97.30
-101.89
-101.46
-95.34
-84.07
-69.24
-52.96
-37.21
-23.35
-11.92
-2.85
4.25
9.74
13.87
16.73
18.48
19.38
19.88
20.45
21.41
22.77
24.15
25.00
24.78
23.24
20.51
16.96
12.96
8.71
4.13
-0.94
-6.58
-12.66
-18.79
-24.61
-29.95
-34.97
-40.20
-46.34
-53.94
-63.21
-73.66
-84.13
-92.89
-98.06
-98.05
-92.13
-80.70
-65.18
-47.69
-30.35
-14.76
-1.70
8.76
17.01
23.42
28.18
31.29
32.69
32.48
30.98
28.63
25.84
22.87
19.80
16.65
13.51
10.63
8.40
7.20
7.23
8.37
10.18
11.96
13.02
12.87
11.40
8.81
5.56
2.05
-1.47
-5.03
-8.93
-13.62
-19.51
-26.65
-34.54
-42.02
-47.36
-48.79
-45.08
-35.97
-22.31
-5.67
12.27
30.26
47.71
64.48
80.47
95.27
108.07
117.81
123.49
124.48
120.61
112.26
100.19
85.46
69.18
52.45
36.18
21.08
7.60
-4.03
-13.86
-22.18
-29.55
-36.64
-44.09
-52.32
-61.37
-70.91
-80.36
-89.05
-96.45
-102.29
-106.72
-110.32
-113.91
-118.41
-124.42
-131.94
-140.19
-147.66
-152.44
-152.75
-147.49
-136.58
-121.04
-102.66
-83.51
-65.45
-49.71
-36.74
-26.34
-17.92
-10.87
-4.76
0.63
5.49
10.07
14.65
19.40
24.10
28.10
30.72
31.80
32.16
33.54
37.94
46.58
59.03
73.09
85.37
92.62
92.85
85.92
73.35
57.45
40.39
23.47
7.04
-9.22
-25.81
-42.85
-59.90
-75.89
-89.35
-98.71
-102.73
-100.79
-93.03
-80.34
-64.20
-46.33
-28.40
-11.80
2.53
14.12
22.95
29.36
33.93
37.33
40.13
42.65
44.91
46.72
47.78
47.95
47.26
46.00
44.55
43.29
42.39
41.79
41.16
40.02
37.91
34.54
29.92
24.35
18.32
12.36
6.82
1.75
-3.15
-8.45
-14.82
-22.82
-32.59
-43.63
-54.75
-64.13
-69.77
-70.08
-64.33
-53.00
-37.55
-20.00
-2.28
14.16
28.57
40.74
50.78
58.84
65.06
69.55
72.47
74.07
74.67
74.56
73.95
72.87
71.21
68.82
65.64
61.81
57.71
53.79
50.37
47.36
44.26
40.36
35.05
28.14
20.01
11.43
3.23
-4.03
-10.33
-16.14
-22.27
-29.61
-38.85
-50.21
-63.18
-76.44
-87.94
-95.27
-96.42
-90.50
-78.11
-61.30
-42.75
-24.97
-9.47
3.38
14.09
23.33
31.52
38.54
44.02
47.68
49.62
50.36
50.52
50.58
50.61
50.36
49.45
47.71
45.27
42.61
40.30
38.71
37.80
37.10
35.88
33.48
29.59
24.43
18.66
13.07
8.29
4.46
1.20
-2.25
-6.77
-13.02
-21.23
-31.09
-41.79
-52.16
-60.77
-66.26
-67.66
-64.76
-58.35
-50.07
-41.87
-35.32
-30.91
-27.84
-24.46
-19.08
-10.78
0.10
12.12
23.43
32.49
38.54
41.65
42.38
41.36
39.08
35.94
32.39
29.08
26.72
25.81
26.33
27.65
28.75
28.63
26.66
22.85
17.77
12.27
7.11
2.62
-1.35
-5.34
-10.06
-16.06
-23.45
-31.72
-39.76
-46.03
-48.91
-47.17
-40.35
-28.94
-14.35
1.52
16.74
29.75
39.57
45.78
48.29
47.27
43.09
36.50
28.74
21.42
16.13
14.02
15.31
19.29
24.62
29.84
33.83
36.09
36.59
35.51
33.07
29.39
24.61
18.97
12.88
6.82
1.19
-3.82
-8.31
-12.69
-17.57
-23.64
-31.36
-40.74
-51.09
-60.97
-68.50
-71.77
-69.50
-61.44
-48.52
-32.54
-15.64
0.31
14.10
25.33
34.27
41.48
47.50
52.63
56.82
59.83
61.42
61.47
60.11
57.64
54.50
51.05
47.57
44.11
40.50
36.39
31.32
24.82
16.62
6.83
-3.94
-14.58
-23.77
-30.36
-33.79
-34.32
-33.04
-31.54
-31.45
-33.96
-39.47
-47.38
-56.16
-63.63
-67.49
-65.92
-58.13
-44.67
-27.23
-8.08
10.53
27.06
40.82
51.83
60.47
67.08
71.84
74.72
75.63
74.49
71.27
65.95
58.52
49.02
37.69
25.07
11.96
-0.60
-11.60
-20.23
-26.08
-29.11
-29.67
-28.37
-25.97
-23.29
-21.08
-19.89
-19.98
-21.28
-23.50
-26.28
-29.39
-32.73
-36.13
-39.14
-40.86
-39.99
-35.25
-25.86
-12.04
4.88
22.72
39.06
51.85
59.82
62.57
60.31
53.59
43.07
29.48
13.74
-3.00
-19.40
-34.16
-46.17
-54.68
-59.34
-60.09
-57.10
-50.74
-41.69
-30.88
-19.46
-8.57
0.93
8.64
14.66
19.41
23.37
26.90
30.11
32.83
34.76
35.52
34.73
32.14
27.72
21.89
15.62
10.34
7.55
8.27
12.47
18.83
25.20
29.18
29.10
24.45
15.97
5.13
-6.49
-17.65
-27.55
-35.64
-41.43
-44.38
-44.17
-40.92
-35.36
-28.60
-21.81
-15.74
-10.51
-5.63
-0.31
6.05
13.55
21.69
29.47
35.76
39.66
40.80
39.42
36.25
32.19
28.02
24.11
20.35
16.09
10.32
1.86
-10.29
-26.57
-46.51
-68.68
-90.76
-110.11
-124.31
-131.73
-131.78
-124.89
-112.24
-95.41
-76.05
-55.74
-35.80
-17.28
-0.88
13.09
24.68
34.18
42.00
48.47
53.82
58.09
61.25
63.27
64.22
64.34
63.96
63.39
62.88
62.49
62.15
61.69
60.87
59.44
57.07
53.36
47.81
39.90
29.24
15.76
-0.24
-18.09
-37.00
-56.21
-75.16
-93.44
-110.54
-125.67
-137.69
-145.27
-147.22
-142.87
-132.26
-116.16
-95.84
-72.91
-48.99
-25.56
-3.82
15.46
31.92
45.61
56.77
65.66
72.44
77.18
80.04
81.40
81.83
81.91
81.84
81.23
79.09
74.23
65.77
53.59
38.44
21.57
4.32
-12.36
-27.85
-41.75
-53.53
-62.46
-67.84
-69.35
-67.33
-62.78
-57.01
-51.21
-46.12
-41.97
-38.77
-36.46
-34.98
-34.06
-33.00
-30.63
-25.55
-16.73
-4.04
11.56
28.16
43.52
55.65
63.27
65.87
63.54
56.75
46.20
32.71
17.39
1.52
-13.48
-26.22
-35.57
-40.87
-42.13
-39.95
-35.35
-29.50
-23.37
-17.50
-12.04
-6.96
-2.30
1.62
4.30
5.26
4.28
1.65
-2.00
-5.96
-9.77
-13.45
-17.46
-22.50
-29.18
-37.84
-48.44
-60.59
-73.60
-86.52
-98.29
-107.81
-114.21
-117.07
-116.40
-112.43
-105.17
-94.13
-78.32
-56.71
-28.89
4.44
41.28
78.51
112.45
139.66
157.69
165.62
164.28
155.87
143.25
129.06
115.16
102.45
91.22
81.64
74.01
68.61
65.29
63.13
60.64
56.31
49.39
40.26
30.22
20.81
12.98
6.67
0.81
-6.06
-15.10
-26.64
-40.09
-54.11
-67.08
-77.33
-83.47
-84.58
-80.55
-72.36
-62.19
-52.97
-47.38
-46.90
-51.01
-57.45
-63.19
-65.63
-63.47
-56.76
-46.20
-32.33
-15.23
5.15
28.21
52.14
74.08
90.90
100.39
102.09
97.44
89.13
80.01
72.04
65.83
60.79
55.85
50.14
43.59
36.95
31.35
27.76
26.45
26.82
27.64
27.47
25.08
19.87
12.03
2.57
-6.84
-14.24
-17.82
-16.33
-9.34
2.71
18.65
36.80
55.22
71.96
85.34
94.12
97.72
96.22
90.28
80.98
69.61
57.39
45.41
34.41
24.80
16.64
9.76
3.87
-1.28
-5.79
-9.67
-12.90
-15.58
-17.99
-20.60
-23.93
-28.40
-34.15
-41.01
-48.63
-56.58
-64.62
-72.81
-81.55
-91.43
-102.94
-116.10
-130.16
-143.48
-153.85
-159.15
-157.96
-150.15
-136.92
-120.39
-102.87
-86.21
-71.37
-58.44
-46.93
-36.21
-25.83
-15.69
-5.98
2.87
10.42
16.33
20.44
22.84
23.78
23.62
22.74
21.48
20.12
18.85
17.79
16.95
16.26
15.65
15.09
14.70
14.67
15.11
15.92
16.54
16.01
13.27
7.53
-1.15
-11.67
-21.88
-29.13
-30.83
-25.25
-11.91
8.32
33.45
60.89
88.07
112.87
134.03
151.06
164.10
173.56
179.98
183.92
186.08
187.44
189.11
191.97
196.24
201.07
204.49
203.86
196.53
180.71
156.04
123.69
85.99
45.68
5.21
-33.89
-70.92
-105.70
-138.10
-167.63
-193.42
-214.57
-230.55
-241.59
-248.64
-253.13
-256.46
-259.61
-262.74
-265.08
-265.04
-260.62
-249.99
-232.14
-207.38
-177.28
-144.28
-110.94
-79.28
-50.43
-24.77
-2.30
16.97
32.81
44.91
53.13
57.76
59.55
59.50
58.61
57.62
56.89
56.43
56.11
55.79
55.42
55.15
55.08
55.22
55.33
54.92
53.42
50.37
45.59
39.26
31.86
23.95
16.05
8.43
1.19
-5.76
-12.56
-19.36
-26.26
-33.23
-40.13
-46.66
-52.49
-57.18
-60.26
-61.15
-59.23
-54.00
-45.30
-33.47
-19.34
-4.08
11.16
25.51
38.49
49.82
59.27
66.54
71.32
73.50
73.38
71.66
69.27
67.05
65.54
64.87
64.86
65.16
65.46
65.56
65.37
64.86
63.99
62.68
60.86
58.45
55.44
51.89
47.91
43.65
39.20
34.54
29.61
24.24
18.31
11.74
4.51
-3.26
-11.34
-19.37
-26.71
-32.61
-36.27
-37.09
-34.89
-30.07
-23.51
-16.32
-9.46
-3.57
1.18
4.90
7.75
9.76
10.72
10.38
8.64
5.68
2.02
-1.69
-4.92
-7.45
-9.40
-11.07
-12.77
-14.66
-16.72
-18.91
-21.16
-23.39
-25.52
-27.37
-28.83
-29.92
-30.89
-32.24
-34.47
-37.88
-42.44
-47.84
-53.73
-59.93
-66.50
-73.57
-81.12
-88.72
-95.56
-100.63
-103.07
-102.33
-98.34
-91.37
-81.90
-70.48
-57.71
-44.20
-30.52
-17.23
-4.77
6.51
16.32
24.46
30.74
35.04
37.30
37.54
35.88
32.56
27.90
22.34
16.32
10.22
4.32
-1.22
-6.31
-10.83
-14.60
-17.44
-19.31
-20.37
-21.04
-21.82
-23.20
-25.42
-28.51
-32.28
-36.57
-41.30
-46.54
-52.50
-59.46
-67.72
-77.51
-88.87
-101.34
-113.76
-124.13
-129.92
-128.71
-119.03
-100.97
-76.27
-47.80
-18.59
8.93
33.40
54.47
72.32
87.21
99.28
108.53
114.98
118.74
120.12
119.52
117.42
114.27
110.44
106.14
101.46
96.39
90.98
85.34
79.64
74.00
68.33
62.37
55.69
47.93
38.93
28.84
18.03
6.95
-4.01
-14.56
-24.58
-34.07
-43.14
-52.01
-61.02
-70.57
-81.03
-92.57
-104.94
-117.19
-127.70
-134.29
-134.75
-127.44
-111.92
-89.14
-61.23
-30.93
-0.91
26.73
50.66
70.25
85.30
95.95
102.61
105.97
106.94
106.47
105.27
103.61
101.36
98.14
93.64
87.92
81.39
74.73
68.59
63.26
58.58
53.95
48.62
41.96
33.75
24.23
13.95
3.51
-6.65
-16.48
-26.26
-36.67
-48.64
-63.33
-81.66
-103.64
-127.72
-150.59
-167.92
-175.73
-171.91
-157.09
-134.20
-107.26
-79.70
-53.46
-29.05
-6.29
14.77
33.48
48.90
60.39
67.98
72.37
74.53
75.25
74.92
73.67
71.51
68.52
65.01
61.40
58.14
55.58
53.89
53.02
52.65
52.30
51.26
48.81
44.30
37.39
28.19
17.28
5.55
-6.10
-17.08
-27.24
-36.87
-46.52
-56.81
-68.26
-81.04
-94.74
-108.09
-119.03
-125.01
-123.74
-113.98
-96.11
-72.04
-44.64
-16.77
9.46
32.97
53.51
71.19
86.02
97.77
106.23
111.42
113.86
114.45
114.17
113.72
113.24
112.45
110.90
108.40
105.17
101.77
98.65
95.79
92.55
87.83
80.58
70.32
57.39
42.84
28.02
14.04
1.44
-9.96
-20.89
-32.40
-45.44
-60.56
-77.57
-95.32
-111.79
-124.43
-130.79
-129.25
-119.40
-102.20
-79.60
-53.98
-27.57
-2.09
21.41
42.37
60.53
75.70
87.68
96.23
101.28
103.06
102.16
99.43
95.69
91.42
86.64
81.07
74.41
66.64
58.07
49.16
40.17
30.88
20.71
9.01
-4.51
-19.44
-34.76
-49.16
-61.50
-71.22
-78.45
-83.88
-88.50
-93.29
-98.89
-105.40
-112.11
-117.54
-119.63
-116.32
-106.25
-89.29
-66.72
-40.89
-14.48
10.17
31.59
49.23
63.21
73.94
81.79
86.99
89.70
90.10
88.49
85.37
81.34
76.99
72.73
68.68
64.73
60.67
56.41
52.14
48.22
44.99
42.43
40.08
37.07
32.50
25.80
17.03
6.88
-3.63
-13.50
-22.11
-29.37
-35.61
-41.41
-47.39
-53.98
-61.32
-69.12
-76.52
-82.11
-84.11
-80.80
-71.15
-55.26
-34.55
-11.32
11.83
32.81
50.41
64.37
74.94
82.39
86.70
87.63
84.99
79.04
70.59
60.91
51.31
42.82
35.84
30.26
25.58
21.24
16.87
12.36
7.79
3.26
-1.33
-6.31
-12.20
-19.42
-28.01
-37.43
-46.75
-54.86
-61.04
-65.12
-67.59
-69.33
-71.28
-74.18
-78.52
-84.51
-92.03
-100.41
-108.30
-113.69
-114.38
-108.70
-96.22
-78.02
-56.45
-34.30
-13.96
3.18
16.82
27.37
35.42
41.33
45.18
46.89
46.55
44.56
41.64
38.64
36.17
34.51
33.44
32.49
31.20
29.41
27.32
25.43
24.16
23.61
23.32
22.43
19.96
15.30
8.42
-0.06
-9.06
-17.53
-24.73
-30.46
-35.08
-39.25
-43.77
-49.28
-56.11
-64.10
-72.43
-79.65
-83.86
-83.28
-76.76
-64.28
-47.05
-27.16
-6.97
11.53
27.17
39.58
49.05
56.08
61.17
64.61
66.50
66.91
65.93
63.83
60.98
57.79
54.57
51.40
48.17
44.69
40.83
36.63
32.30
28.10
24.17
20.46
16.71
12.57
7.73
2.09
-4.15
-10.54
-16.54
-21.73
-25.95
-29.38
-32.48
-35.85
-40.11
-45.73
-52.84
-61.12
-69.58
-76.61
-80.26
-78.78
-71.19
-57.76
-39.93
-19.91
-0.00
18.03
33.26
45.54
55.17
62.61
68.21
72.19
74.71
75.94
76.10
75.42
74.07
72.18
69.81
67.05
64.08
61.15
58.52
56.33
54.53
52.81
50.74
47.92
44.17
39.56
34.29
28.50
22.28
15.61
8.54
1.39
-5.35
-11.15
-15.67
-18.97
-21.48
-23.87
-26.79
-30.86
-36.57
-44.26
-53.95
-65.05
-76.08
-84.80
-88.81
-86.33
-77.04
-62.32
-44.81
-27.58
-13.05
-2.38
4.59
8.94
11.96
14.61
17.22
19.49
20.74
20.28
17.80
13.51
8.17
2.75
-1.88
-5.29
-7.50
-8.86
-9.74
-10.33
-10.57
-10.22
-9.03
-6.90
-3.92
-0.44
3.02
5.85
7.48
7.61
6.35
4.15
1.63
-0.69
-2.65
-4.47
-6.71
-10.00
-14.91
-21.79
-30.61
-40.84
-51.28
-60.22
-65.82
-66.66
-62.36
-53.74
-42.56
-30.88
-20.37
-11.87
-5.41
-0.49
3.48
6.88
9.86
12.45
14.79
17.21
20.20
24.10
28.97
34.41
39.71
44.10
47.09
48.62
48.97
48.56
47.69
46.40
44.54
41.91
38.37
33.93
28.63
22.60
16.04
9.26
2.64
-3.49
-8.95
-13.87
-18.59
-23.64
-29.60
-36.96
-45.97
-56.48
-67.80
-78.72
-87.72
-93.28
-94.43
-91.03
-83.79
-74.08
-63.42
-53.05
-43.61
-35.13
-27.18
-19.21
-10.87
-2.22
6.32
14.14
20.71
25.90
29.96
33.47
37.06
41.20
46.05
51.47
57.11
62.51
67.23
70.93
73.37
74.54
74.59
73.75
72.23
70.02
66.85
62.17
55.35
45.86
33.54
18.67
2.01
-15.39
-32.50
-48.56
-63.22
-76.48
-88.31
-98.33
-105.57
-108.55
-105.81
-96.48
-80.92
-60.80
-38.67
-17.19
1.69
17.24
29.77
40.08
48.78
55.93
61.12
63.94
64.35
62.89
60.43
57.77
55.28
52.85
50.06
46.58
42.35
37.69
33.14
29.13
25.83
23.00
20.06
16.28
11.00
4.01
-4.41
-13.53
-22.39
-30.20
-36.62
-41.84
-46.46
-51.24
-56.80
-63.48
-71.26
-79.71
-88.04
-95.09
-99.54
-100.17
-96.24
-87.77
-75.64
-61.30
-46.36
-32.03
-18.95
-7.09
3.85
14.13
23.66
32.04
38.80
43.71
46.98
49.19
50.96
52.66
54.17
55.03
54.72
53.01
50.16
46.75
43.42
40.50
37.83
34.92
31.09
25.85
19.03
10.88
1.98
-6.95
-15.29
-22.70
-29.26
-35.45
-42.04
-49.78
-59.13
-70.00
-81.58
-92.31
-100.23
-103.35
-100.27
-90.67
-75.51
-56.79
-36.97
-18.23
-1.89
11.68
22.86
32.22
40.16
46.72
51.68
54.86
56.28
56.19
54.86
52.47
48.88
43.85
37.21
29.08
20.03
10.90
2.60
-4.23
-9.35
-12.96
-15.53
-17.64
-19.69
-21.88
-24.10
-26.08
-27.53
-28.31
-28.61
-28.93
-29.95
-32.37
-36.69
-43.00
-50.90
-59.37
-66.89
-71.61
-71.77
-66.24
-54.94
-38.93
-20.17
-0.89
17.06
32.59
45.40
55.69
63.76
69.70
73.48
75.05
74.60
72.74
70.35
68.22
66.66
65.24
62.85
58.18
50.34
39.42
26.52
13.38
1.68
-7.63
-14.54
-19.82
-24.43
-29.10
-34.00
-38.81
-43.02
-46.19
-48.17
-49.10
-49.36
-49.53
-50.24
-52.09
-55.39
-59.91
-64.68
-68.07
-68.15
-63.23
-52.51
-36.34
-16.21
5.76
27.48
47.44
64.98
80.21
93.60
105.43
115.48
122.82
126.16
124.19
116.26
102.73
85.00
65.16
45.37
27.26
11.64
-1.38
-11.98
-20.24
-26.05
-29.21
-29.86
-28.67
-26.79
-25.39
-25.15
-25.94
-26.90
-26.80
-24.72
-20.46
-14.75
-8.88
-4.28
-2.03
-2.56
-5.65
-10.39
-15.45
-19.16
-20.01
-17.09
-10.54
-1.62
7.63
15.07
19.30
19.99
17.87
14.20
10.10
6.25
2.76
-0.45
-3.39
-5.80
-7.31
-7.66
-6.87
-5.24
-3.16
-0.82
1.95
5.59
10.58
17.06
24.53
31.97
38.15
42.10
43.49
42.77
40.88
38.92
37.69
37.53
38.14
38.61
37.44
32.79
22.80
6.29
-16.66
-44.15
-72.59
-97.48
-114.67
-121.64
-118.22
-106.38
-89.24
-69.92
-50.68
-32.66
-16.28
-1.64
11.32
22.88
33.70
44.70
56.52
68.99
80.95
90.70
96.88
99.27
98.99
98.04
98.33
100.86
105.42
110.80
115.47
118.16
118.25
115.67
110.71
103.67
94.65
83.57
70.39
55.37
39.34
23.50
9.20
-2.64
-11.75
-18.53
-23.65
-27.54
-30.10
-30.67
-28.43
-22.87
-14.19
-3.25
8.67
20.51
31.83
43.10
55.34
69.61
86.19
104.16
121.42
135.24
143.00
142.83
133.83
116.01
90.05
57.41
20.31
-18.30
-55.24
-87.86
-114.80
-136.16
-153.06
-166.73
-177.81
-186.12
-191.14
-192.59
-190.83
-186.69
-180.96
-173.97
-165.58
-155.54
-143.99
-131.67
-119.74
-109.24
-100.55
-93.10
-85.50
-75.97
-63.00
-45.85
-24.84
-1.28
22.94
45.92
66.32
83.65
98.15
110.41
120.90
129.60
136.09
139.79
140.46
138.44
134.68
130.35
126.40
123.25
120.70
118.20
115.19
111.39
106.91
102.12
97.35
92.65
87.68
81.82
74.36
64.80
53.00
39.29
24.37
9.17
-5.39
-18.56
-29.97
-39.68
-48.10
-55.87
-63.54
-71.37
-79.11
-86.00
-90.99
-93.11
-91.87
-87.48
-80.79
-73.03
-65.36
-58.54
-52.81
-48.04
-43.94
-40.35
-37.23
-34.65
-32.54
-30.68
-28.72
-26.38
-23.60
-20.64
-17.89
-15.69
-14.17
-13.13
-12.18
-10.99
-9.46
-7.83
-6.55
-6.08
-6.64
-8.14
-10.20
-12.36
-14.27
-15.87
-17.43
-19.43
-22.49
-27.06
-33.26
-40.70
-48.44
-55.14
-59.40
-60.17
-57.12
-50.73
-42.19
-32.98
-24.41
-17.36
-12.15
-8.72
-6.84
-6.27
-6.82
-8.30
-10.37
-12.53
-14.20
-14.95
-14.63
-13.49
-12.02
-10.75
-9.91
-9.37
-8.71
-7.48
-5.51
-3.08
-0.83
0.54
0.65
-0.40
-2.00
-3.38
-3.95
-3.59
-2.71
-2.03
-2.35
-4.25
-8.00
-13.54
-20.53
-28.28
-35.72
-41.55
-44.53
-44.00
-40.26
-34.54
-28.54
-23.64
-20.29
-17.85
-15.06
-10.84
-4.82
2.32
9.32
14.90
18.29
19.44
18.80
16.97
14.42
11.37
7.90
4.08
0.12
-3.65
-6.91
-9.47
-11.31
-12.66
-13.84
-15.20
-16.99
-19.36
-22.30
-25.74
-29.61
-33.76
-38.04
-42.16
-45.82
-48.77
-50.96
-52.69
-54.56
-57.26
-61.22
-66.27
-71.44
-75.16
-75.70
-71.86
-63.42
-51.31
-37.32
-23.42
-11.17
-1.28
6.44
12.72
18.34
23.79
29.07
33.83
37.64
40.26
41.73
42.33
42.39
42.13
41.59
40.67
39.29
37.52
35.62
33.91
32.63
31.73
30.93
29.74
27.69
24.54
20.38
15.64
10.87
6.55
2.89
-0.28
-3.43
-7.20
-12.15
-18.64
-26.65
-35.76
-45.06
-53.30
-59.02
-60.95
-58.38
-51.45
-41.11
-28.90
-16.37
-4.76
5.38
14.02
21.49
28.04
33.76
38.44
41.81
43.70
44.15
43.46
42.03
40.25
38.31
36.25
34.03
31.67
29.36
27.36
25.97
25.21
24.83
24.31
23.02
20.48
16.56
11.55
6.03
0.67
-4.09
-8.22
-12.06
-16.25
-21.46
-28.21
-36.67
-46.67
-57.60
-68.46
-77.93
-84.67
-87.66
-86.52
-81.71
-74.33
-65.87
-57.60
-50.45
-44.84
-40.93
-38.77
-38.48
-40.19
-43.91
-49.46
-56.42
-64.22
-72.24
-80.00
-87.30
-94.25
-101.20
-108.54
-116.35
-124.03
-130.33
-133.64
-132.62
-126.84
-117.11
-105.28
-93.55
-83.64
-76.26
-71.03
-66.97
-63.19
-59.42
-56.17
-54.49
-55.50
-59.93
-67.70
-77.80
-88.30
-96.63
-100.12
-96.55
-84.80
-65.17
-39.27
-9.58
21.20
50.80
77.72
101.21
121.04
137.21
149.85
159.17
165.59
169.76
172.48
174.44
175.97
176.97
176.94
175.38
172.02
167.10
161.23
155.11
149.20
143.50
137.63
131.04
123.38
114.68
105.36
96.05
87.28
79.32
72.05
65.06
57.77
49.63
40.23
29.41
17.41
4.93
-6.81
-16.31
-22.12
-23.31
-19.84
-12.66
-3.34
6.46
15.50
23.32
30.07
36.17
41.83
46.90
50.86
53.24
53.86
52.96
51.14
49.05
47.15
45.57
44.21
42.91
41.58
40.30
39.25
38.62
38.45
38.56
38.61
38.18
36.84
34.34
30.64
25.97
20.78
15.56
10.77
6.61
2.99
-0.46
-4.29
-9.02
-15.00
-22.15
-29.94
-37.34
-43.05
-45.77
-44.63
-39.38
-30.60
-19.49
-7.52
3.96
14.06
22.45
29.22
34.63
38.88
42.05
44.06
44.92
44.76
43.89
42.70
41.48
40.26
38.87
37.04
34.63
31.73
28.69
25.91
23.64
21.81
20.02
17.77
14.61
10.47
5.60
0.47
-4.40
-8.76
-12.64
-16.36
-20.45
-25.39
-31.55
-39.06
-47.65
-56.63
-64.91
-71.12
-73.97
-72.55
-66.76
-57.30
-45.50
-32.92
-20.91
-10.35
-1.54
5.57
11.21
15.52
18.57
20.38
21.03
20.76
19.88
18.72
17.46
16.06
14.36
12.25
9.84
7.47
5.60
4.52
4.14
3.98
3.32
1.53
-1.58
-5.75
-10.43
-15.04
-19.28
-23.25
-27.28
-31.81
-37.18
-43.64
-51.21
-59.69
-68.46
-76.48
-82.36
-84.75
-82.81
-76.53
-66.87
-55.40
-43.82
-33.43
-24.91
-18.32
-13.37
-9.73
-7.19
-5.71
-5.35
-6.15
-8.08
-11.05
-14.92
-19.62
-25.09
-31.29
-38.05
-45.09
-52.02
-58.55
-64.61
-70.56
-77.04
-84.83
-94.52
-106.28
-119.86
-134.70
-150.26
-166.21
-182.51
-199.23
-216.35
-233.59
-250.34
-265.77
-278.76
-287.89
-291.54
-288.11
-276.52
-256.68
-229.78
-198.07
-164.10
-130.04
-97.06
-65.23
-33.89
-2.09
30.96
65.50
100.98
135.97
168.31
195.60
215.88
228.27
233.23
232.31
227.54
220.77
213.34
206.07
199.39
193.50
188.24
182.97
176.72
168.53
157.94
145.29
131.69
118.45
106.53
96.06
86.21
75.55
62.51
46.03
25.95
3.46
-19.01
-38.13
-50.35
-52.98
-44.97
-27.27
-2.58
25.56
53.76
79.59
101.85
120.37
135.51
147.73
157.43
164.87
170.32
174.06
176.34
177.35
177.19
175.80
173.02
168.58
162.27
154.15
144.61
134.35
124.07
114.09
104.09
93.31
81.00
66.97
51.88
37.01
23.63
12.22
2.15
-8.27
-20.98
-37.24
-56.80
-77.64
-96.30
-108.96
-112.62
-106.12
-90.48
-68.43
-43.44
-18.64
3.91
23.32
39.53
52.91
63.78
72.39
78.81
83.02
84.90
84.33
81.26
75.93
69.00
61.49
54.60
49.41
46.60
46.25
47.86
50.41
52.64
53.35
51.67
47.25
40.25
31.23
20.85
9.59
-2.46
-15.58
-30.29
-46.97
-65.53
-85.21
-104.52
-121.46
-134.03
-140.70
-140.90
-135.16
-124.98
-112.40
-99.46
-87.74
-78.13
-70.84
-65.71
-62.41
-60.70
-60.46
-61.47
-63.21
-64.75
-64.81
-62.16
-55.98
-46.28
-33.93
-20.46
-7.57
3.39
11.71
17.41
20.88
22.55
22.55
20.59
16.02
8.14
-3.61
-19.28
-38.38
-59.67
-81.18
-100.30
-113.97
-119.14
-113.49
-96.11
-68.08
-32.56
5.77
41.64
70.49
89.42
97.79
97.12
90.29
80.49
70.23
60.70
51.82
42.74
32.66
21.37
9.48
-2.03
-12.28
-21.01
-28.58
-35.67
-42.81
-50.11
-57.31
-64.08
-70.32
-76.29
-82.45
-89.23
-96.77
-104.99
-113.63
-122.57
-131.79
-141.28
-150.51
-158.08
-161.58
-158.00
-144.73
-120.58
-86.53
-45.58
-1.93
40.36
78.34
110.53
136.54
156.37
169.98
177.35
178.79
175.22
168.09
158.90
148.60
137.45
125.11
111.25
95.94
79.87
63.98
49.00
35.02
21.47
7.35
-8.19
-25.42
-43.80
-62.03
-78.50
-91.82
-101.29
-107.19
-110.74
-113.65
-117.58
-123.47
-131.04
-138.65
-143.58
-142.75
-133.73
-115.54
-89.08
-56.81
-22.07
11.90
42.68
68.95
90.32
106.91
119.08
127.15
131.48
132.51
130.83
127.12
122.05
116.20
109.97
103.57
97.08
90.55
84.09
77.89
72.16
67.03
62.40
57.86
52.77
46.46
38.42
28.56
17.26
5.31
-6.35
-16.98
-26.25
-34.43
-42.23
-50.55
-60.16
-71.39
-84.00
-97.13
-109.38
-119.00
-124.21
-123.61
-116.66
-103.84
-86.71
-67.42
-48.19
-30.71
-15.92
-3.97
5.48
12.85
18.50
22.59
25.22
26.52
26.78
26.40
25.81
25.43
25.56
26.36
27.81
29.76
31.93
34.01
35.78
37.08
37.84
38.00
37.39
35.78
33.00
29.02
24.10
18.72
13.32
8.13
2.98
-2.62
-9.24
-17.32
-26.99
-38.20
-50.81
-64.68
-79.51
-94.52
-108.30
-118.73
-123.58
-121.05
-110.55
-92.88
-70.01
-44.43
-18.34
6.76
30.19
51.67
70.93
87.49
100.74
110.29
116.35
119.76
121.73
123.35
125.07
126.60
127.19
126.09
123.05
118.44
113.01
107.39
101.67
95.13
86.45
74.22
57.43
36.06
11.15
-15.31
-40.93
-63.45
-81.28
-93.81
-101.34
-104.88
-105.80
-105.55
-105.48
-106.62
-109.47
-113.67
-117.87
-119.93
-117.54
-109.00
-93.92
-73.51
-50.14
-26.65
-5.43
12.06
25.32
34.57
40.26
42.82
42.65
40.23
36.17
31.27
26.39
22.28
19.50
18.46
19.35
22.23
26.98
33.24
40.51
48.07
55.17
61.09
65.22
67.14
66.66
63.85
59.05
52.74
45.43
37.46
28.89
19.40
8.50
-4.31
-19.25
-36.19
-54.61
-73.91
-93.55
-113.01
-131.41
-147.10
-157.57
-159.85
-151.45
-131.47
-101.17
-63.84
-23.87
14.44
47.94
75.01
95.34
109.48
118.34
122.88
124.07
122.80
119.89
115.93
111.32
106.28
100.87
95.13
89.01
82.45
75.37
67.70
59.48
50.83
41.97
33.11
24.33
15.53
6.40
-3.44
-14.23
-26.00
-38.43
-51.02
-63.19
-74.53
-84.90
-94.45
-103.53
-112.62
-122.16
-132.49
-143.61
-155.01
-165.55
-173.53
-177.00
-174.32
-164.75
-148.74
-127.86
-104.29
-80.19
-57.10
-35.81
-16.55
0.68
15.78
28.44
38.42
45.76
50.99
55.08
59.11
63.97
70.07
77.23
84.89
92.26
98.57
103.22
105.83
106.27
104.62
101.12
95.97
89.27
80.95
70.80
58.68
44.71
29.37
13.41
-2.43
-17.73
-32.64
-47.76
-63.95
-81.91
-101.82
-123.23
-145.03
-165.55
-182.68
-194.20
-198.09
-193.07
-179.05
-157.39
-130.60
-101.80
-73.91
-48.91
-27.68
-10.11
4.39
16.39
26.25
34.13
40.31
45.31
49.93
54.95
60.83
67.48
74.33
80.61
85.68
89.36
91.89
93.73
95.22
96.36
96.71
95.56
92.18
86.18
77.61
67.04
55.31
43.30
31.54
20.07
8.41
-4.34
-19.15
-36.77
-57.36
-80.10
-103.10
-123.49
-137.93
-143.48
-138.50
-123.24
-99.91
-71.97
-43.19
-16.60
6.05
24.32
38.65
49.82
58.54
65.26
70.30
73.94
76.54
78.46
80.00
81.22
81.96
81.92
80.88
78.83
75.99
72.70
69.19
65.39
60.83
54.88
46.95
36.73
24.27
10.02
-5.29
-20.73
-35.28
-47.93
-57.99
-65.17
-69.86
-73.05
-76.16
-80.64
-87.56
-97.17
-108.63
-120.03
-128.71
-131.87
-127.38
-114.46
-93.99
-68.29
-40.43
-13.39
10.67
30.63
46.34
58.13
66.45
71.59
73.71
72.95
69.66
64.36
57.78
50.63
43.42
36.32
29.28
22.18
15.04
8.20
2.14
-2.72
-6.33
-9.11
-11.86
-15.37
-20.13
-26.03
-32.45
-38.54
-43.49
-46.83
-48.52
-48.90
-48.56
-48.18
-48.39
-49.72
-52.45
-56.45
-61.02
-64.76
-65.75
-62.04
-52.34
-36.56
-16.07
6.75
29.18
49.05
65.14
77.16
85.26
89.48
89.50
84.95
75.84
63.05
48.29
33.64
20.86
10.84
3.51
-1.76
-5.74
-8.82
-11.01
-12.12
-12.05
-11.01
-9.54
-8.38
-8.20
-9.47
-12.24
-16.13
-20.36
-24.05
-26.57
-27.84
-28.42
-29.33
-31.61
-36.01
-42.76
-51.58
-61.73
-72.04
-81.03
-87.09
-89.00
-86.40
-80.07
-71.67
-62.99
-55.09
-47.77
-39.77
-29.54
-16.15
0.14
18.11
36.36
54.15
71.95
91.26
113.88
140.98
172.38
206.29
239.73
269.26
292.00
306.44
312.81
312.85
309.19
304.47
300.62
298.57
298.26
298.90
299.33
298.29
294.79
288.33
279.09
267.87
255.78
243.76
232.08
220.19
206.91
190.90
171.09
146.99
118.72
87.03
53.18
18.91
-13.88
-43.49
-68.92
-90.12
-107.96
-123.69
-138.32
-152.21
-165.02
-176.08
-184.84
-191.16
-195.27
-197.53
-198.19
-197.36
-195.03
-191.26
-186.09
-179.44
-170.97
-160.12
-146.33
-129.29
-109.21
-86.75
-62.92
-38.79
-15.27
6.83
26.98
44.84
60.40
73.98
86.10
97.31
107.86
117.67
126.24
132.93
137.29
139.29
139.54
139.26
140.08
143.70
151.40
163.69
180.03
198.92
218.22
235.56
248.88
256.65
258.01
252.81
241.55
225.35
205.78
184.63
163.61
143.96
126.27
110.46
95.92
81.87
67.64
52.95
37.92
23.01
8.78
-4.46
-16.77
-28.75
-41.22
-55.01
-70.56
-87.76
-106.08
-124.79
-143.31
-161.47
-179.52
-198.02
-217.75
-239.58
-264.31
-292.19
-322.35
-352.44
-378.74
-397.18
-404.66
-400.32
-385.89
-364.99
-341.74
-319.32
-299.26
-281.58
-265.55
-250.46
-235.99
-222.09
-208.66
-195.45
-182.20
-168.87
-155.82
-143.68
-133.07
-124.11
-116.20
-108.04
-98.09
-85.09
-68.63
-49.35
-28.70
-8.42
9.94
25.50
38.02
47.77
55.01
59.74
61.54
59.64
53.34
42.36
27.24
9.40
-8.99
-25.39
-37.49
-43.64
-43.28
-36.99
-26.43
-13.90
-1.83
7.83
14.05
16.89
17.46
17.60
19.58
25.62
37.57
56.43
82.10
113.16
147.18
181.20
212.51
239.16
260.16
275.42
285.31
290.35
290.92
287.16
279.09
266.95
251.54
234.50
218.20
205.05
196.49
192.26
190.23
187.17
180.09
167.40
149.45
128.02
105.25
82.61
60.51
38.56
16.19
-6.82
-30.28
-53.92
-77.72
-101.87
-126.45
-150.89
-173.73
-193.05
-207.16
-215.44
-218.62
-218.41
-216.65
-214.54
-212.38
-209.91
-206.95
-203.91
-201.84
-202.00
-205.34
-212.02
-221.34
-231.92
-242.05
-250.11
-254.83
-255.52
-251.96
-244.36
-233.16
-219.20
-204.03
-190.19
-181.26
-181.04
-192.29
-215.69
-249.60
-290.79
-335.72
-381.35
-425.09
-464.15
-495.12
-514.36
-519.35
-510.14
-489.86
-463.74
-437.21
-413.94
-394.96
-379.17
-364.70
-350.07
-334.69
-318.58
-301.74
-283.85
-264.29
-242.54
-218.53
-192.82
-166.41
-140.43
-115.80
-92.99
-72.02
-52.66
-34.61
-17.79
-2.39
11.26
22.80
32.11
39.32
44.86
49.23
52.94
56.29
59.35
62.01
64.05
65.29
65.64
65.18
64.18
63.03
62.14
61.88
62.41
63.65
65.28
66.87
68.08
68.83
69.46
70.58
72.89
76.82
82.33
88.82
95.36
101.13
105.78
109.75
114.11
120.12
128.73
140.02
153.26
167.11
180.32
192.18
202.94
213.67
226.00
241.70
262.18
287.88
317.57
347.90
373.62
388.75
388.52
371.36
339.99
300.93
262.39
231.62
212.73
206.09
209.23
218.59
231.15
245.09
259.54
273.92
287.40
298.76
306.87
311.02
311.28
308.37
303.24
296.71
289.15
280.45
270.26
258.32
244.74
230.11
215.43
201.70
189.50
178.67
168.31
157.11
143.88
128.12
110.24
91.48
73.49
57.75
45.07
35.37
27.80
21.08
13.89
5.27
-5.24
-17.44
-30.43
-42.62
-51.86
-55.78
-52.36
-40.57
-20.72
5.66
36.30
68.86
101.40
132.57
161.37
186.85
207.85
223.04
231.08
231.02
222.63
206.48
183.79
156.16
125.03
91.25
54.89
15.37
-27.57
-72.96
-117.91
-157.90
-187.90
-203.95
-204.38
-190.22
-164.69
-131.75
-94.98
-57.15
-20.55
12.55
39.57
58.18
67.01
65.87
56.46
41.81
25.09
8.42
-7.69
-24.50
-43.96
-67.76
-97.70
-133.88
-174.59
-216.70
-256.63
-290.99
-317.72
-335.80
-345.28
-348.66
-348.36
-345.96
-342.18
-337.58
-332.74
-329.44
-329.38
-333.58
-343.74
-359.07
-376.06
-389.72
-395.82
-392.11
-380.08
-362.92
-331.87
-285.53
-229.28
-172.76
-123.98
-89.45
-65.24
-47.62
-33.56
-20.07
-7.23
5.28
18.45
33.52
51.07
71.17
92.49
114.03
135.60
156.03
175.32
194.53
215.06
237.49
261.22
283.50
301.08
311.27
311.80
302.58
285.68
264.43
242.06
221.04
202.19
185.58
170.97
157.50
144.49
131.43
117.98
103.89
89.17
73.89
58.47
43.61
29.74
17.07
5.36
-6.05
-18.15
-31.77
-47.15
-63.46
-78.65
-89.95
-94.63
-90.98
-78.87
-59.85
-36.63
-12.21
10.94
31.32
48.38
62.20
73.07
81.16
86.59
89.47
90.05
88.65
85.67
81.44
76.18
70.12
63.51
56.72
50.12
44.02
38.50
33.35
28.19
22.52
16.02
8.59
0.46
-8.01
-16.45
-24.70
-32.92
-41.53
-51.09
-62.09
-74.69
-88.43
-102.04
-113.50
-120.37
-120.46
-112.59
-97.06
-75.65
-51.03
-25.94
-2.53
17.99
35.16
48.89
59.14
65.80
68.86
68.61
65.70
61.08
55.70
50.29
45.28
40.82
36.94
33.77
31.62
30.94
32.06
34.96
39.10
43.43
46.67
47.65
45.73
40.91
33.86
25.53
16.80
8.15
-0.57
-9.99
-20.99
-34.18
-49.40
-65.43
-80.12
-90.86
-95.47
-93.00
-84.07
-70.67
-55.35
-40.24
-26.31
-13.28
-0.13
14.17
29.94
46.60
62.91
77.48
89.24
97.71
102.97
105.41
105.57
103.90
100.81
96.70
92.03
87.31
83.01
79.30
75.97
72.37
67.58
60.78
51.54
40.06
27.17
14.00
1.63
-9.32
-18.90
-27.80
-37.09
-47.86
-60.68
-75.28
-90.31
-103.51
-112.20
-114.05
-107.85
-93.97
-74.22
-51.31
-27.92
-6.06
13.30
30.00
44.24
56.07
65.19
70.98
72.81
70.37
63.90
54.12
42.08
28.92
15.60
2.83
-8.93
-19.33
-28.03
-34.62
-38.84
-40.78
-41.08
-40.88
-41.51
-43.93
-48.35
-54.15
-60.20
-65.42
-69.27
-72.00
-74.43
-77.60
-82.38
-89.12
-97.57
-106.71
-114.75
-119.39
-118.27
-109.79
-93.80
-71.80
-46.62
-21.42
1.25
20.15
35.28
47.38
57.18
64.97
70.62
73.87
74.72
73.57
71.14
68.16
65.08
62.00
58.67
54.85
50.51
45.97
41.75
38.36
35.88
33.91
31.65
28.20
23.00
16.11
8.13
-0.00
-7.44
-13.74
-18.98
-23.69
-28.60
-34.51
-42.02
-51.35
-62.09
-73.00
-82.03
-86.77
-85.14
-76.20
-60.53
-40.13
-17.78
3.90
23.16
39.40
52.81
63.90
72.98
79.97
84.55
86.55
86.13
83.86
80.49
76.73
72.91
69.06
64.93
60.35
55.41
50.41
45.71
41.49
37.50
33.15
27.65
20.34
10.94
-0.34
-12.85
-25.73
-38.20
-49.70
-60.10
-69.67
-79.02
-88.91
-100.09
-113.00
-127.45
-142.37
-155.69
-164.68
-166.63
-159.71
-143.73
-120.37
-92.69
-64.25
-37.99
-15.58
2.70
17.49
29.66
39.86
48.27
54.82
59.43
62.19
63.40
63.44
62.60
60.96
58.52
55.26
51.40
47.35
43.67
40.88
39.27
38.76
38.87
38.87
37.96
35.52
31.33
25.58
18.84
11.81
5.04
-1.21
-7.11
-13.12
-19.83
-27.82
-37.48
-48.75
-60.93
-72.51
-81.40
-85.39
-82.90
-73.60
-58.58
-40.00
-20.34
-1.65
14.85
28.78
40.24
49.42
56.39
61.13
63.72
64.42
63.77
62.43
61.04
60.06
59.57
59.36
59.00
58.14
56.70
54.96
53.47
52.66
52.57
52.58
51.60
48.41
42.21
32.90
21.15
8.15
-4.91
-17.17
-28.40
-38.91
-49.40
-60.65
-73.30
-87.51
-102.75
-117.70
-130.30
-138.29
-139.83
-134.27
-122.46
-106.52
-89.05
-72.32
-57.53
-44.81
-33.62
-23.46
-14.25
-6.41
-0.46
3.37
5.36
6.21
6.65
7.16
7.75
8.05
7.46
5.32
1.04
-5.77
-15.17
-26.66
-39.18
-51.27
-61.52
-69.01
-73.55
-75.59
-75.77
-74.55
-71.91
-67.50
-60.97
-52.23
-41.57
-29.36
-15.82
-0.66
16.98
38.34
64.80
97.47
136.86
182.55
233.03
285.80
337.58
384.80
424.16
453.19
470.70
476.97
473.61
463.15
448.42
432.02
415.75
400.59
386.71
373.75
361.12
348.18
334.41
319.43
303.08
285.46
266.90
247.94
229.08
210.68
192.89
175.63
158.72
142.03
125.56
109.52
94.18
79.80
66.53
54.32
43.00
32.31
22.06
12.17
2.71
-6.18
-14.40
-21.95
-28.96
-35.65
-42.19
-48.69
-55.09
-61.21
-66.90
-72.13
-77.04
-81.93
-87.14
-92.92
-99.27
-105.99
-112.77
-119.36
-125.75
-132.24
-139.31
-147.48
-157.02
-167.84
-179.58
-191.72
-203.86
-215.90
-228.07
-240.81
-254.72
-270.45
-288.64
-309.58
-332.83
-356.92
-379.27
-396.86
-407.10
-408.78
-402.47
-390.17
-374.45
-357.45
-340.34
-323.32
-306.11
-288.41
-270.26
-251.87
-233.45
-215.00
-196.31
-177.24
-157.87
-138.65
-120.30
-103.62
-89.14
-77.02
-66.91
-58.17
-50.18
-42.50
-35.04
-27.94
-21.39
-15.42
-9.90
-4.58
0.66
5.61
9.81
12.58
13.41
12.18
9.35
5.81
2.57
0.31
-0.87
-1.54
-2.66
-5.20
-9.73
-16.09
-23.40
-30.13
-34.56
-35.16
-31.10
-22.47
-10.29
3.76
17.89
30.62
41.12
49.22
55.15
59.24
61.68
62.49
61.64
59.20
55.38
50.46
44.67
38.13
30.93
23.22
15.33
7.82
1.29
-3.82
-7.47
-10.05
-12.23
-14.77
-18.16
-22.47
-27.41
-32.40
-36.94
-40.69
-43.64
-46.05
-48.27
-50.65
-53.47
-56.80
-60.47
-64.03
-66.63
-67.15
-64.44
-57.68
-46.80
-32.66
-16.82
-1.15
12.80
24.14
32.74
39.00
43.41
46.29
47.67
47.49
45.89
43.27
40.23
37.36
34.98
33.02
31.15
29.03
26.52
23.74
20.98
18.46
16.10
13.46
9.93
4.97
-1.54
-9.32
-17.69
-25.93
-33.57
-40.54
-47.28
-54.55
-63.19
-73.77
-86.24
-99.66
-112.19
-121.48
-125.31
-122.51
-113.39
-99.79
-84.35
-69.62
-57.31
-48.11
-42.05
-39.13
-39.63
-44.01
-52.46
-64.47
-78.58
-92.74
-104.75
-112.70
-115.20
-111.32
-100.50
-82.51
-57.52
-26.09
10.96
53.03
100.10
152.72
211.29
274.90
340.22
401.32
450.84
482.15
491.68
480.13
452.10
414.17
372.50
331.13
291.43
252.84
214.04
174.09
133.14
92.37
53.76
19.52
-8.50
-29.40
-43.47
-52.10
-57.29
-60.99
-64.51
-68.31
-72.25
-75.93
-79.05
-81.58
-83.58
-85.08
-85.94
-86.00
-85.31
-84.24
-83.54
-84.04
-86.24
-89.94
-94.46
-99.15
-104.14
-110.61
-120.22
-133.75
-149.90
-164.81
-173.24
-170.64
-155.31
-129.28
-97.44
-65.27
-36.63
-12.69
7.35
24.43
37.95
45.53
44.28
32.87
12.86
-11.56
-35.23
-54.37
-67.97
-77.54
-85.31
-92.16
-96.33
-93.91
-80.70
-54.58
-16.84
27.87
73.16
113.11
143.89
164.37
175.38
178.38
174.53
164.32
148.22
127.32
103.61
79.41
56.45
35.22
15.03
-5.15
-25.78
-46.28
-65.53
-82.72
-97.99
-112.43
-127.21
-142.83
-158.75
-173.82
-187.11
-198.50
-208.57
-217.85
-226.10
-232.09
-234.17
-231.08
-222.74
-210.30
-195.46
-179.48
-162.41
-142.83
-118.32
-86.42
-45.80
2.74
55.94
108.78
155.85
193.05
218.73
233.75
240.48
241.39
238.02
230.83
219.90
205.65
189.27
172.26
155.70
139.73
123.58
106.12
86.56
64.87
41.60
17.63
-6.28
-29.75
-52.74
-75.29
-97.32
-118.45
-137.99
-155.29
-169.87
-181.66
-190.87
-197.73
-202.16
-203.63
-201.37
-194.83
-184.36
-171.48
-158.77
-149.10
-144.51
-145.12
-148.67
-150.96
-147.04
-132.79
-106.26
-68.24
-22.02
27.74
76.18
119.37
154.79
181.36
199.12
208.74
211.19
207.62
199.42
188.34
176.51
166.18
159.23
156.58
157.73
160.81
163.05
161.84
155.63
144.47
129.92
114.33
99.94
88.10
78.87
71.11
62.95
52.45
38.46
21.15
2.29
-15.02
-27.25
-31.68
-27.60
-16.91
-3.75
6.83
10.72
6.26
-5.20
-19.87
-33.08
-40.93
-41.43
-34.71
-22.54
-7.43
7.95
21.13
29.89
32.44
27.65
15.41
-3.23
-26.32
-51.47
-76.46
-99.77
-120.81
-139.98
-158.44
-177.77
-199.46
-224.45
-252.83
-283.82
-315.90
-347.08
-375.16
-397.98
-413.61
-420.74
-418.94
-408.80
-391.80
-369.95
-345.33
-319.67
-294.18
-269.55
-246.08
-223.77
-202.38
-181.51
-160.72
-139.63
-118.15
-96.45
-74.87
-53.75
-33.23
-13.20
6.65
26.72
47.43
69.20
92.33
116.74
141.64
165.43
185.93
200.97
209.02
209.57
202.99
190.16
172.16
150.33
126.52
103.27
83.54
69.80
63.12
62.68
66.11
70.62
74.21
76.38
77.96
80.37
84.74
91.47
100.41
111.29
124.22
139.96
159.65
184.58
216.02
255.27
303.39
360.59
425.34
493.87
560.40
618.54
663.09
691.44
703.94
702.99
691.68
672.69
648.00
619.29
588.37
557.30
527.80
500.70
475.61
451.34
426.60
400.70
373.80
346.59
320.09
295.05
271.76
250.09
229.59
209.78
190.38
171.35
152.94
135.50
119.32
104.49
90.90
78.29
66.35
54.80
43.51
32.45
21.68
11.34
1.55
-7.60
-16.08
-23.98
-31.50
-38.88
-46.42
-54.29
-62.50
-70.90
-79.18
-87.08
-94.48
-101.56
-108.72
-116.48
-125.24
-135.08
-145.77
-156.85
-167.78
-178.30
-188.39
-198.40
-208.88
-220.52
-233.98
-249.63
-267.23
-285.64
-302.78
-316.04
-323.05
-322.47
-314.45
-300.50
-282.91
-263.86
-244.82
-226.49
-208.97
-192.24
-176.42
-161.83
-148.89
-137.83
-128.64
-121.01
-114.52
-108.73
-103.39
-98.52
-94.37
-91.24
-89.28
-88.32
-87.88
-87.33
-86.14
-84.10
-81.38
-78.35
-75.42
-72.82
-70.52
-68.36
-66.16
-63.92
-61.85
-60.32
-59.61
-59.75
-60.41
-61.00
-60.88
-59.60
-57.16
-53.99
-50.81
-48.32
-46.96
-46.74
-47.33
-48.18
-48.75
-48.64
-47.68
-45.99
-44.02
-42.38
-41.72
-42.35
-44.08
-46.20
-47.80
-48.06
-46.66
-43.78
-39.93
-35.65
-31.30
-27.03
-22.96
-19.25
-16.18
-13.94
-12.54
-11.80
-11.42
-11.18
-11.02
-11.05
-11.43
-12.18
-13.17
-14.14
-14.79
-15.03
-14.94
-14.84
-15.08
-15.89
-17.23
-18.75
-19.95
-20.35
-19.64
-17.82
-15.15
-12.13
-9.37
-7.56
-7.25
-8.74
-11.88
-16.00
-20.04
-22.82
-23.38
-21.33
-16.96
-11.16
-5.13
-0.01
3.46
5.06
5.13
4.28
3.16
2.22
1.59
1.21
0.92
0.62
0.34
0.09
-0.11
-0.36
-0.78
-1.39
-2.04
-2.47
-2.37
-1.61
-0.30
1.24
2.61
3.50
3.82
3.67
3.22
2.62
1.87
0.88
-0.58
-2.66
-5.39
-8.68
-12.23
-15.65
-18.57
-20.65
-21.73
-21.80
-20.98
-19.43
-17.41
-15.07
-12.61
-10.13
-7.77
-5.62
-3.77
-2.31
-1.29
-0.68
-0.40
-0.23
0.06
0.65
1.56
2.60
3.46
3.79
3.41
2.35
0.82
-0.94
-2.78
-4.68
-6.72
-8.92
-11.18
-13.30
-15.07
-16.40
-17.35
-18.11
-18.87
-19.78
-20.94
-22.38
-24.07
-25.95
-27.76
-29.11
-29.54
-28.66
-26.35
-22.79
-18.36
-13.47
-8.42
-3.39
1.58
6.39
10.93
14.97
18.36
21.04
23.04
24.49
25.52
26.26
26.77
27.10
27.27
27.23
26.94
26.36
25.45
24.27
22.89
21.34
19.67
17.81
15.69
13.27
10.55
7.65
4.71
1.93
-0.59
-2.86
-5.04
-7.39
-10.09
-13.14
-16.23
-18.86
-20.48
-20.70
-19.44
-16.92
-13.64
-10.09
-6.71
-3.70
-1.06
1.31
3.54
5.78
8.03
10.24
12.30
14.07
15.45
16.37
16.84
16.87
16.50
15.77
14.75
13.59
12.44
11.45
10.66
9.99
9.18
7.90
5.99
3.47
0.56
-2.37
-4.97
-7.07
-8.72
-10.15
-11.67
-13.58
-16.05
-19.05
-22.41
-25.72
-28.52
-30.26
-30.49
-28.97
-25.79
-21.34
-16.19
-10.94
-6.03
-1.61
2.33
5.96
9.34
12.38
14.85
16.49
17.18
16.98
16.14
15.00
13.82
12.73
11.70
10.64
9.45
8.14
6.80
5.52
4.31
3.05
1.51
-0.51
-3.09
-6.09
-9.18
-12.03
-14.37
-16.23
-17.91
-19.90
-22.67
-26.49
-31.28
-36.51
-41.41
-45.03
-46.43
-44.95
-40.26
-32.46
-22.11
-10.10
2.52
14.76
25.81
35.25
42.83
48.50
52.20
53.93
53.75
51.92
48.89
45.27
41.63
38.41
35.76
33.65
31.89
30.22
28.48
26.60
24.56
22.42
20.19
17.81
15.20
12.25
8.93
5.36
1.75
-1.63
-4.63
-7.32
-9.95
-12.94
-16.64
-21.15
-26.26
-31.41
-35.80
-38.48
-38.68
-35.96
-30.38
-22.51
-13.28
-3.76
5.19
13.02
19.56
24.82
28.83
31.57
32.99
33.12
32.18
30.61
28.87
27.34
26.17
25.24
24.30
23.15
21.71
20.08
18.40
16.82
15.38
13.99
12.48
10.67
8.43
5.72
2.72
-0.41
-3.47
-6.33
-9.02
-11.65
-14.33
-17.17
-20.18
-23.33
-26.57
-29.75
-32.58
-34.63
-35.34
-34.14
-30.71
-25.13
-17.87
-9.75
-1.59
5.90
12.38
17.77
22.15
25.55
27.88
29.05
28.96
27.77
25.85
23.75
21.93
20.65
19.84
19.20
18.34
17.04
15.28
13.26
11.25
9.38
7.70
6.03
4.19
2.08
-0.29
-2.79
-5.25
-7.58
-9.76
-11.88
-14.04
-16.29
-18.72
-21.40
-24.41
-27.77
-31.37
-34.86
-37.64
-38.93
-37.99
-34.34
-27.98
-19.47
-9.72
0.19
9.33
17.04
23.06
27.42
30.26
31.74
32.01
31.24
29.79
28.11
26.68
25.81
25.49
25.37
25.05
24.20
22.76
21.03
19.41
18.20
17.45
16.92
16.17
14.80
12.55
9.44
5.73
1.82
-1.86
-5.11
-7.94
-10.59
-13.42
-16.70
-20.57
-24.87
-29.27
-33.24
-36.17
-37.44
-36.51
-33.08
-27.17
-19.30
-10.29
-1.17
7.15
14.08
19.42
23.24
25.77
27.16
27.50
26.90
25.48
23.58
21.58
19.82
18.47
17.47
16.60
15.63
14.40
12.92
11.27
9.55
7.77
5.87
3.74
1.30
-1.38
-4.21
-6.98
-9.57
-11.88
-13.92
-15.81
-17.75
-20.02
-22.86
-26.34
-30.20
-33.77
-36.11
-36.28
-33.67
-28.23
-20.45
-11.28
-1.79
7.10
14.78
20.93
25.52
28.68
30.56
31.38
31.36
30.71
29.68
28.50
27.31
26.13
24.81
23.16
21.04
18.50
15.71
12.95
10.43
8.14
5.91
3.51
0.72
-2.43
-5.79
-9.12
-12.22
-14.99
-17.45
-19.74
-22.07
-24.63
-27.61
-31.04
-34.76
-38.33
-41.09
-42.26
-41.12
-37.26
-30.75
-22.13
-12.37
-2.54
6.44
14.01
20.01
24.53
27.75
29.72
30.51
30.21
29.12
27.66
26.22
25.09
24.25
23.50
22.57
21.31
19.72
17.95
16.16
14.43
12.72
10.91
8.86
6.50
3.81
0.85
-2.22
-5.29
-8.23
-10.99
-13.63
-16.34
-19.44
-23.18
-27.73
-32.91
-38.20
-42.82
-45.82
-46.34
-43.81
-38.12
-29.67
-19.30
-8.17
2.57
11.99
19.62
25.47
29.81
33.02
35.28
36.60
36.92
36.25
34.79
32.91
30.99
29.22
27.60
25.93
24.02
21.79
19.36
16.89
14.49
12.15
9.68
6.89
3.68
0.10
-3.65
-7.31
-10.65
-13.55
-15.96
-17.97
-19.78
-21.64
-23.89
-26.76
-30.34
-34.47
-38.63
-42.06
-43.83
-43.05
-39.17
-32.17
-22.65
-11.77
-0.88
8.79
16.55
22.26
26.18
28.72
30.15
30.53
29.91
28.38
26.32
24.22
22.55
21.53
21.02
20.64
19.97
18.69
16.81
14.56
12.30
10.32
8.73
7.37
5.95
4.09
1.62
-1.47
-4.90
-8.33
-11.42
-14.03
-16.19
-18.09
-20.04
-22.33
-25.20
-28.68
-32.61
-36.56
-39.79
-41.38
-40.43
-36.36
-29.16
-19.48
-8.55
2.22
11.54
18.76
23.76
26.95
28.87
29.92
30.25
29.83
28.68
26.99
25.19
23.71
22.79
22.33
21.98
21.34
20.17
18.59
16.85
15.25
13.91
12.68
11.31
9.56
7.38
4.85
2.15
-0.58
-3.25
-5.89
-8.46
-10.92
-13.19
-15.29
-17.33
-19.57
-22.22
-25.36
-28.90
-32.43
-35.40
-37.17
-37.10
-34.77
-30.06
-23.23
-14.93
-6.07
2.43
9.83
15.77
20.21
23.43
25.73
27.29
28.16
28.29
27.73
26.64
25.32
24.00
22.77
21.46
19.89
17.94
15.73
13.60
11.88
10.74
10.05
9.49
8.65
7.28
5.33
2.98
0.43
-2.12
-4.54
-6.78
-8.82
-10.64
-12.24
-13.69
-15.12
-16.73
-18.70
-21.10
-23.76
-26.20
-27.73
-27.62
-25.36
-20.94
-14.87
-8.09
-1.66
3.68
7.60
10.31
12.26
13.90
15.40
16.70
17.57
17.84
17.56
16.94
16.27
15.76
15.41
15.08
14.61
13.89
12.94
11.91
10.93
10.04
9.17
8.21
7.03
5.57
3.88
2.01
0.06
-1.93
-3.87
-5.70
-7.33
-8.74
-9.97
-11.19
-12.60
-14.37
-16.54
-18.93
-21.21
-22.92
-23.63
-22.98
-20.84
-17.33
-12.84
-7.95
-3.23
0.85
4.04
6.33
7.84
8.74
9.18
9.22
8.95
8.44
7.82
7.23
6.73
6.30
5.84
5.23
4.43
3.51
2.70
2.17
2.04
2.20
2.36
2.22
1.47
0.02
-2.02
-4.32
-6.53
-8.31
-9.49
-10.09
-10.30
-10.49
-11.04
-12.27
-14.31
-16.97
-19.81
-22.21
-23.49
-23.16
-21.03
-17.26
-12.35
-7.02
-1.99
2.13
5.06
6.79
7.58
7.80
7.76
7.68
7.60
7.54
7.47
7.37
7.18
6.86
6.34
5.58
4.62
3.59
2.73
2.19
2.00
2.01
1.86
1.20
-0.22
-2.41
-5.04
-7.67
-9.83
-11.32
-12.21
-12.84
-13.67
-15.06
-17.12
-19.72
-22.45
-24.71
-25.88
-25.45
-23.13
-19.05
-13.66
-7.64
-1.69
3.66
8.18
11.83
14.64
16.68
18.00
18.67
18.77
18.48
17.94
17.24
16.39
15.39
14.20
12.86
11.49
10.27
9.34
8.80
8.54
8.32
7.77
6.56
4.55
1.92
-0.97
-3.67
-5.85
-7.48
-8.77
-10.08
-11.75
-14.02
-16.95
-20.47
-24.31
-27.94
-30.62
-31.48
-29.81
-25.32
-18.36
-9.82
-0.89
7.32
14.14
19.34
23.09
25.68
27.34
28.20
28.31
27.77
26.73
25.48
24.28
23.31
22.60
21.97
21.22
20.16
18.72
17.01
15.26
13.68
12.40
11.30
10.11
8.48
6.16
3.10
-0.47
-4.17
-7.52
-10.17
-12.03
-13.26
-14.33
-15.83
-18.27
-21.86
-26.33
-30.90
-34.48
-35.99
-34.71
-30.53
-23.92
-15.75
-6.99
1.60
9.55
16.63
22.71
27.65
31.27
33.42
34.12
33.58
32.22
30.62
29.40
29.09
30.05
32.30
35.43
38.53
40.35
39.78
36.31
30.28
22.83
15.36
8.88
3.70
-0.64
-4.90
-9.63
-14.82
-20.00
-24.57
-28.19
-30.92
-33.15
-35.34
-37.78
-40.49
-43.30
-45.92
-47.97
-49.07
-48.71
-46.36
-41.62
-34.33
-24.89
-14.16
-3.36
6.33
14.05
19.54
23.03
25.06
26.18
26.74
26.89
26.68
26.13
25.34
24.46
23.58
22.72
21.73
20.50
18.89
16.93
14.79
12.62
10.56
8.65
6.77
4.77
2.47
-0.21
-3.20
-6.32
-9.30
-11.89
-13.97
-15.52
-16.77
-18.07
-19.81
-22.30
-25.67
-29.72
-33.95
-37.63
-39.90
-39.97
-37.32
-31.87
-24.04
-14.75
-5.18
3.55
10.65
15.89
19.52
22.03
23.84
25.10
25.71
25.54
24.62
23.27
21.95
21.04
20.64
20.54
20.35
19.77
18.73
17.45
16.20
15.20
14.43
13.63
12.47
10.67
8.16
5.07
1.72
-1.54
-4.44
-6.89
-8.98
-10.93
-13.02
-15.50
-18.54
-22.22
-26.40
-30.71
-34.53
-37.03
-37.38
-35.00
-29.80
-22.25
-13.31
-4.13
4.27
11.33
16.91
21.19
24.44
26.84
28.45
29.28
29.45
29.21
28.85
28.60
28.54
28.52
28.37
27.93
27.17
26.27
25.48
25.10
25.25
25.82
26.50
26.84
26.49
25.32
23.58
21.83
20.82
21.10
22.83
25.58
28.40
30.12
29.61
26.12
19.46
10.10
-0.87
-11.98
-21.62
-28.37
-31.47
-30.89
-27.36
-22.08
-16.33
-11.10
-6.90
-3.83
-1.71
-0.37
0.31
0.36
-0.17
-1.13
-2.24
-3.17
-3.68
-3.64
-3.20
-2.68
-2.49
-2.96
-4.17
-5.99
-8.03
-9.91
-11.34
-12.24
-12.70
-12.90
-13.04
-13.20
-13.39
-13.61
-13.85
-14.23
-14.95
-16.22
-18.14
-20.67
-23.61
-26.67
-29.50
-31.76
-33.09
-33.25
-32.09
-29.64
-26.17
-22.09
-17.83
-13.72
-9.86
-6.25
-2.86
0.22
2.89
4.98
6.47
7.43
8.04
8.49
8.87
9.19
9.37
9.31
8.95
8.37
7.73
7.27
7.16
7.40
7.78
7.96
7.60
6.55
4.84
2.69
0.44
-1.68
-3.52
-5.06
-6.46
-7.92
-9.75
-12.19
-15.26
-18.71
-21.97
-24.30
-25.02
-23.79
-20.68
-16.12
-10.76
-5.26
-0.09
4.42
8.17
11.11
13.30
14.77
15.59
15.89
15.79
15.47
15.12
14.84
14.63
14.36
13.87
13.02
11.84
10.49
9.20
8.19
7.49
6.94
6.27
5.19
3.55
1.37
-1.15
-3.71
-6.08
-8.15
-9.95
-11.67
-13.50
-15.60
-18.06
-20.77
-23.47
-25.73
-26.99
-26.73
-24.60
-20.60
-15.17
-9.10
-3.25
1.72
5.59
8.57
11.07
13.42
15.67
17.60
18.92
19.49
19.46
19.13
18.81
18.59
18.29
17.60
16.25
14.24
11.84
9.57
7.93
7.15
7.14
7.38
7.28
6.26
4.14
1.10
-2.34
-5.62
-8.27
-10.10
-11.26
-12.06
-12.89
-14.11
-15.96
-18.46
-21.36
-24.08
-25.85
-25.94
-23.89
-19.73
-13.97
-7.44
-1.04
4.54
8.99
12.32
14.74
16.48
17.71
18.50
18.94
19.14
19.23
19.37
19.60
19.87
20.00
19.80
19.11
17.93
16.38
14.67
13.11
11.89
11.07
10.55
10.02
9.14
7.68
5.63
3.21
0.82
-1.23
-2.77
-3.96
-5.07
-6.47
-8.38
-10.86
-13.85
-17.20
-20.72
-24.06
-26.71
-28.07
-27.61
-25.13
-20.88
-15.57
-10.08
-5.18
-1.31
1.55
3.67
5.35
6.78
8.02
9.03
9.81
10.46
11.15
11.96
12.83
13.56
13.88
13.61
12.72
11.39
9.89
8.47
7.27
6.23
5.20
3.96
2.41
0.56
-1.43
-3.35
-5.06
-6.48
-7.67
-8.87
-10.26
-12.11
-14.56
-17.60
-20.98
-24.25
-26.72
-27.71
-26.74
-23.73
-19.05
-13.41
-7.69
-2.52
1.79
5.26
8.13
10.56
12.55
13.98
14.69
14.71
14.25
13.61
13.07
12.69
12.40
12.03
11.51
10.93
10.44
10.19
10.17
10.19
9.99
9.32
8.08
6.27
4.09
1.73
-0.60
-2.72
-4.60
-6.34
-8.12
-10.15
-12.61
-15.52
-18.79
-22.16
-25.23
-27.49
-28.38
-27.43
-24.54
-20.01
-14.54
-8.94
-3.88
0.36
3.91
7.08
10.09
12.88
15.11
16.45
16.77
16.32
15.64
15.22
15.32
15.83
16.38
16.54
16.08
15.00
13.59
12.14
10.93
10.03
9.29
8.47
7.30
5.62
3.47
1.10
-1.14
-2.94
-4.18
-4.97
-5.63
-6.57
-8.15
-10.56
-13.75
-17.40
-21.00
-23.84
-25.22
-24.54
-21.56
-16.50
-10.05
-3.19
3.12
8.22
11.89
14.29
15.85
16.87
17.56
17.90
17.85
17.45
16.85
16.29
15.94
15.77
15.61
15.20
14.42
13.31
12.12
11.13
10.47
10.12
9.85
9.43
8.74
7.76
6.59
5.33
4.04
2.71
1.35
-0.01
-1.36
-2.78
-4.46
-6.67
-9.61
-13.25
-17.25
-20.98
-23.68
-24.71
-23.76
-20.95
-16.74
-11.85
-7.01
-2.78
0.46
2.63
3.85
4.35
4.32
3.94
3.27
2.37
1.31
0.17
-0.99
-2.12
-3.23
-4.36
-5.47
-6.45
-7.12
-7.34
-7.11
-6.56
-5.96
-5.56
-5.54
-5.92
-6.62
-7.49
-8.42
-9.32
-10.19
-11.08
-12.12
-13.46
-15.22
-17.47
-20.13
-22.95
-25.44
-26.96
-26.86
-24.69
-20.38
-14.35
-7.44
-0.49
5.79
11.12
15.53
19.17
22.15
24.43
25.89
26.53
26.50
26.14
25.81
25.68
25.77
25.87
25.83
25.57
25.12
24.58
24.01
23.31
22.30
20.69
18.36
15.35
11.92
8.46
5.29
2.63
0.46
-1.38
-3.19
-5.30
-8.00
-11.44
-15.58
-20.05
-24.15
-27.03
-27.86
-26.21
-22.14
-16.32
-9.72
-3.38
1.95
5.87
8.41
9.90
10.77
11.38
11.97
12.59
13.18
13.62
13.82
13.73
13.37
12.77
12.02
11.19
10.36
9.59
8.93
8.32
7.63
6.63
5.12
2.92
0.07
-3.28
-6.81
-10.21
-13.23
-15.83
-18.19
-20.64
-23.52
-26.99
-30.93
-34.84
-38.06
-39.90
-39.87
-37.85
-34.13
-29.27
-23.97
-18.83
-14.18
-10.03
-6.20
-2.45
1.27
4.80
7.77
9.90
11.12
11.65
11.97
12.50
13.41
14.54
15.53
16.02
15.93
15.49
15.15
15.33
16.20
17.60
19.19
20.68
21.92
22.90
23.60
23.81
23.08
20.83
16.65
10.45
2.53
-6.51
-15.91
-24.87
-32.52
-38.03
-40.65
-40.00
-36.28
-30.22
-22.96
-15.61
-8.95
-3.24
1.60
5.81
9.54
12.76
15.35
17.25
18.53
19.42
20.18
20.96
21.77
22.46
22.78
22.53
21.70
20.48
19.25
18.48
18.48
19.29
20.50
21.37
20.99
18.73
14.39
8.37
1.52
-5.22
-11.16
-16.07
-20.22
-24.21
-28.64
-33.93
-40.05
-46.62
-52.84
-57.74
-60.41
-60.20
-56.99
-51.17
-43.58
-35.23
-27.01
-19.59
-13.30
-8.24
-4.37
-1.49
0.67
2.47
4.27
6.31
8.62
10.98
13.11
14.64
15.43
15.44
14.81
13.69
12.21
10.40
8.27
5.80
3.05
0.08
-2.95
-5.98
-9.02
-12.24
-15.95
-20.54
-26.34
-33.53
-41.95
-51.02
-59.89
-67.70
-73.93
-78.67
-82.59
-86.47
-90.73
-94.99
-98.19
-99.12
-97.14
-92.69
-87.23
-82.59
-80.23
-80.62
-83.24
-87.02
-91.02
-94.80
-98.43
-102.33
-107.00
-112.97
-120.90
-131.57
-145.55
-162.66
-181.51
-199.38
-212.91
-219.10
-216.37
-205.02
-186.88
-164.45
-139.90
-114.54
-88.96
-63.48
-38.64
-15.40
5.08
21.80
34.20
42.12
45.62
44.68
39.07
28.57
13.31
-5.79
-26.94
-47.66
-65.39
-78.15
-85.07
-86.37
-83.12
-76.75
-68.56
-59.54
-50.43
-41.98
-35.05
-30.60
-29.54
-32.49
-39.62
-50.64
-64.98
-81.85
-100.40
-119.71
-138.86
-156.83
-172.67
-185.43
-194.33
-198.83
-198.67
-193.91
-184.87
-172.09
-156.16
-137.75
-117.46
-95.87
-73.55
-51.00
-28.70
-7.09
13.42
32.52
49.92
65.42
78.84
90.06
99.02
105.71
110.20
112.65
113.30
112.40
110.28
107.23
103.55
99.47
95.22
90.95
86.79
82.80
79.04
75.51
72.22
69.16
66.32
63.69
61.24
58.98
56.89
54.98
53.23
51.64
50.21
48.93
47.83
46.91
46.20
45.70
45.44
45.40
45.62
46.08
46.78
47.69
48.81
50.10
51.54
53.10
54.74
56.43
58.11
59.73
61.25
62.62
63.78
64.65
65.13
65.12
64.50
63.17
61.06
58.14
54.43
49.94
44.73
38.86
32.41
25.48
18.22
10.84
3.59
-3.26
-9.44
-14.75
-19.07
-22.38
-24.68
-26.04
-26.44
-25.83
-24.14
-21.30
-17.36
-12.50
-7.05
-1.34
4.38
10.04
15.81
21.98
28.87
36.60
45.06
53.87
62.60
70.92
78.81
86.61
94.86
104.06
114.48
125.97
138.08
150.28
162.22
173.91
185.69
198.19
212.18
228.49
247.92
270.84
296.69
323.57
348.35
367.34
377.49
377.55
368.49
352.99
334.33
315.19
296.99
280.01
263.99
248.74
234.39
221.13
208.89
197.06
184.66
170.79
155.14
138.22
121.17
105.27
91.22
78.81
66.88
53.97
38.95
21.56
2.56
-16.69
-34.74
-50.42
-62.87
-71.43
-75.54
-74.81
-69.37
-59.99
-48.12
-35.44
-23.43
-12.92
-4.08
3.34
9.70
15.13
19.59
22.96
25.32
26.98
28.40
29.98
31.86
33.91
35.76
37.05
37.61
37.52
37.10
36.72
36.61
36.79
37.02
36.94
36.24
34.75
32.58
30.02
27.38
24.86
22.42
19.72
16.22
11.36
4.70
-3.89
-14.11
-25.14
-35.66
-44.07
-48.85
-49.10
-44.87
-37.27
-28.11
-19.30
-12.18
-7.29
-4.41
-2.97
-2.49
-2.77
-3.81
-5.68
-8.30
-11.38
-14.48
-17.00
-18.32
-17.85
-15.24
-10.56
-4.41
2.24
8.35
13.17
16.40
18.19
18.80
18.42
17.06
14.60
11.03
6.52
1.47
-3.65
-8.46
-12.73
-16.48
-19.90
-23.31
-27.05
-31.46
-36.77
-43.01
-49.93
-56.89
-62.90
-66.69
-67.10
-63.41
-55.67
-44.74
-32.07
-19.18
-7.24
3.20
12.18
20.03
27.10
33.48
39.01
43.39
46.33
47.69
47.52
46.03
43.59
40.61
37.51
34.49
31.46
27.91
23.04
15.82
5.45
-8.42
-25.35
-44.10
-62.94
-80.03
-93.93
-103.97
-110.33
-113.86
-115.75
-117.04
-118.46
-120.25
-122.33
-124.57
-126.92
-129.61
-133.08
-137.87
-144.39
-152.58
-161.58
-169.61
-174.23
-172.91
-163.83
-146.56
-122.26
-93.31
-62.34
-31.27
-0.69
30.10
62.37
97.02
133.78
171.04
206.32
236.99
261.02
277.36
285.82
286.65
280.18
266.68
246.52
220.55
190.27
157.75
125.26
94.75
67.41
43.65
23.16
5.33
-10.51
-24.88
-38.23
-50.89
-63.11
-75.02
-86.47
-97.07
-106.28
-113.62
-118.85
-122.21
-124.33
-126.12
-128.42
-131.58
-135.07
-137.51
-136.94
-131.45
-119.98
-102.70
-81.18
-57.82
-35.12
-15.02
1.52
14.45
24.23
31.35
36.04
38.24
37.81
34.79
29.66
23.26
16.63
10.61
5.68
1.80
-1.31
-3.96
-6.17
-7.74
-8.43
-8.21
-7.48
-6.98
-7.44
-9.29
-12.43
-16.29
-20.12
-23.33
-25.75
-27.66
-29.62
-32.24
-36.00
-41.13
-47.49
-54.43
-60.73
-64.65
-64.23
-57.94
-45.20
-26.75
-4.45
19.22
41.89
61.86
78.23
90.66
99.00
103.04
102.51
97.36
88.13
76.01
62.63
49.62
38.08
28.31
19.95
12.32
4.98
-2.00
-8.01
-12.28
-14.27
-14.07
-12.40
-10.43
-9.33
-9.93
-12.43
-16.45
-21.20
-25.91
-30.09
-33.75
-37.35
-41.53
-46.89
-53.74
-62.04
-71.31
-80.66
-88.69
-93.76
-94.23
-89.02
-78.11
-62.65
-44.66
-26.38
-9.50
5.21
17.85
28.89
38.64
46.99
53.52
57.75
59.50
58.97
56.58
52.77
47.79
41.72
34.58
26.57
18.16
10.14
3.33
-1.68
-4.81
-6.63
-8.16
-10.47
-14.27
-19.59
-25.73
-31.61
-36.17
-38.80
-39.55
-39.08
-38.43
-38.81
-41.24
-46.31
-53.83
-62.72
-71.02
-76.37
-76.69
-70.89
-59.26
-43.35
-25.46
-7.75
8.21
21.69
32.64
41.21
47.50
51.43
52.89
51.91
48.85
44.40
39.40
34.70
30.87
28.10
26.22
24.83
23.52
22.07
20.43
18.68
16.72
14.24
10.68
5.57
-1.26
-9.45
-18.15
-26.31
-33.10
-38.20
-41.96
-45.29
-49.29
-55.01
-63.02
-73.21
-84.69
-95.72
-104.08
-107.53
-104.53
-94.74
-79.18
-59.94
-39.43
-19.69
-1.91
13.62
27.14
38.94
49.02
57.00
62.38
64.83
64.39
61.52
57.00
51.65
46.15
40.87
35.89
31.08
26.29
21.50
16.86
12.63
9.02
6.06
3.48
0.74
-2.73
-7.32
-13.06
-19.53
-25.97
-31.62
-35.92
-38.77
-40.49
-41.78
-43.42
-46.12
-50.31
-55.95
-62.32
-67.93
-70.70
-68.47
-59.75
-44.40
-23.83
-0.68
22.07
42.03
57.99
69.94
78.68
85.15
89.99
93.35
95.09
94.97
92.89
88.92
83.31
76.35
68.33
59.51
50.20
40.74
31.58
23.21
16.04
10.31
5.93
2.48
-0.64
-4.11
-8.46
-13.94
-20.42
-27.47
-34.52
-41.04
-46.72
-51.63
-56.10
-60.71
-66.06
-72.69
-80.98
-90.92
-101.91
-112.57
-120.87
-124.45
-121.41
-110.92
-93.73
-71.94
-48.43
-25.98
-6.56
8.99
20.85
29.81
36.79
42.50
47.36
51.50
54.84
57.21
58.31
57.69
54.81
49.15
40.53
29.34
16.76
4.57
-5.27
-11.35
-13.30
-12.04
-9.43
-7.54
-7.96
-11.15
-16.43
-22.41
-27.61
-31.09
-32.71
-33.08
-33.21
-34.13
-36.71
-41.48
-48.47
-57.04
-65.77
-72.51
-74.88
-70.99
-60.07
-42.96
-21.82
0.45
21.07
38.10
50.65
58.83
63.28
64.86
64.38
62.48
59.66
56.27
52.46
48.21
43.33
37.53
30.61
22.59
13.80
4.93
-3.33
-10.44
-16.37
-21.64
-27.08
-33.44
-40.98
-49.25
-57.21
-63.70
-67.94
-69.86
-70.17
-70.11
-71.04
-73.92
-78.95
-85.30
-91.13
-93.92
-91.15
-81.16
-63.85
-40.88
-15.25
9.70
31.24
47.88
59.47
66.60
70.07
70.47
68.16
63.55
57.28
50.22
43.18
36.69
30.81
25.25
19.75
14.34
9.42
5.54
3.08
1.87
1.21
0.06
-2.49
-6.84
-12.68
-19.17
-25.25
-30.19
-33.80
-36.56
-39.37
-43.30
-49.11
-56.97
-66.12
-74.85
-80.67
-80.96
-73.73
-58.36
-35.99
-9.16
18.96
45.64
69.32
89.77
107.65
123.78
138.54
151.70
162.59
170.47
174.80
175.20
171.45
163.36
150.94
134.57
115.26
94.60
74.41
56.26
40.99
28.45
17.65
7.28
-3.70
-15.71
-28.36
-40.75
-51.96
-61.50
-69.57
-77.04
-85.22
-95.48
-108.77
-125.29
-144.13
-163.19
-179.52
-189.91
-191.89
-184.53
-168.80
-147.27
-123.16
-99.36
-77.64
-58.53
-41.72
-26.71
-13.32
-1.84
7.23
13.51
17.03
18.26
17.96
16.87
15.61
14.65
14.45
15.55
18.50
23.59
30.53
38.28
45.24
49.78
50.81
48.23
42.91
36.21
29.40
23.07
16.99
10.27
1.84
-9.04
-22.29
-36.77
-50.32
-60.17
-63.62
-58.95
-46.01
-26.40
-3.07
20.64
41.99
59.51
73.04
83.24
90.98
96.73
100.53
102.25
102.04
100.59
99.01
98.34
99.02
100.62
102.08
102.21
100.23
96.01
89.81
81.80
71.72
58.91
42.65
22.61
-0.94
-27.16
-54.79
-82.17
-107.17
-127.11
-139.20
-141.31
-132.88
-115.33
-91.71
-65.44
-38.96
-13.07
12.64
38.29
62.20
80.36
87.20
77.46
48.08
-0.51
-64.17
-135.58
-205.52
-264.49
-304.70
-321.81
-316.09
-292.22
-257.64
-219.90
-184.34
-152.95
-124.95
-98.47
-72.26
-46.38
-21.87
0.12
18.96
34.61
47.13
56.29
61.52
62.15
58.04
49.94
39.40
28.33
18.26
9.74
2.21
-5.52
-14.33
-23.93
-32.42
-36.85
-34.39
-23.61
-5.26
17.90
42.13
63.96
81.29
93.61
101.70
106.81
110.07
112.11
113.12
113.05
111.82
109.39
105.78
101.05
95.31
88.77
81.75
74.69
68.02
62.00
56.58
51.35
45.70
39.04
31.14
22.21
12.86
3.80
-4.51
-12.03
-19.19
-26.75
-35.52
-46.15
-58.72
-72.51
-85.81
-96.08
-100.53
-97.12
-85.41
-66.90
-44.70
-22.35
-2.73
12.82
24.46
33.22
40.17
45.90
50.39
53.38
54.69
54.40
52.79
50.16
46.72
42.64
38.16
33.59
29.29
25.48
22.15
18.99
15.51
11.22
5.82
-0.71
-8.10
-15.90
-23.59
-30.81
-37.50
-43.98
-50.90
-59.02
-68.65
-79.25
-89.12
-95.71
-96.35
-89.27
-74.36
-53.38
-29.42
-5.79
14.93
31.53
44.18
53.85
61.68
68.49
74.54
79.66
83.42
85.35
85.04
82.26
77.02
69.62
60.67
51.00
41.54
33.01
25.72
19.46
13.54
7.12
-0.42
-9.23
-18.86
-28.54
-37.47
-45.26
-52.03
-58.42
-65.37
-73.69
-83.61
-94.47
-104.63
-111.75
-113.40
-107.89
-94.85
-75.47
-52.16
-27.72
-4.55
15.90
33.21
47.67
59.75
69.76
77.76
83.63
87.26
88.70
88.18
85.99
82.49
78.03
72.98
67.80
63.00
59.07
56.34
54.83
54.20
53.73
52.52
49.72
44.87
38.09
30.08
21.87
14.42
8.13
2.56
-3.58
-11.97
-23.91
-39.47
-56.99
-73.17
-83.90
-85.64
-76.76
-58.26
-33.51
-7.04
17.09
36.60
51.44
63.14
73.61
84.01
94.23
103.37
110.58
115.54
118.54
120.00
120.39
120.80
123.68
132.97
152.93
185.62
228.70
274.76
313.32
334.46
332.50
307.63
264.97
211.95
155.51
100.78
51.09
8.76
-24.60
-48.50
-64.22
-75.01
-85.19
-98.71
-117.56
-140.94
-165.52
-186.62
-199.73
-201.95
-192.81
-174.20
-149.69
-123.23
-98.07
-76.01
-57.40
-41.69
-28.23
-16.89
-8.22
-3.13
-2.37
-6.09
-13.71
-24.33
-37.14
-51.90
-68.88
-88.63
-111.52
-137.35
-165.24
-193.77
-221.26
-246.10
-267.07
-283.39
-294.79
-301.40
-303.55
-301.53
-295.33
-284.52
-268.36
-246.20
-218.06
-185.18
-150.20
-116.76
-88.35
-66.83
-51.30
-37.85
-20.79
5.25
43.14
92.07
148.03
205.53
259.61
307.33
347.95
382.11
410.83
434.80
454.47
470.37
483.18
493.40
500.70
503.63
499.99
487.79
466.29
436.62
401.50
364.32
328.07
294.49
263.91
235.60
208.40
181.32
153.85
126.04
98.31
71.18
45.00
19.73
-5.08
-30.08
-55.87
-82.68
-110.39
-138.53
-166.63
-194.36
-221.69
-248.85
-276.43
-305.42
-337.00
-372.02
-410.09
-448.81
-483.71
-509.22
-520.39
-514.71
-493.01
-459.07
-418.07
-374.82
-332.48
-292.41
-254.88
-219.91
-187.81
-159.09
-134.09
-112.70
-94.31
-78.11
-63.41
-49.78
-37.17
-25.64
-15.25
-6.00
2.09
8.71
13.04
13.88
10.05
1.07
-12.24
-27.52
-41.48
-50.93
-53.95
-50.52
-42.42
-32.36
-22.87
-15.42
-10.16
-6.23
-2.51
1.68
6.18
9.90
11.25
8.59
0.90
-11.95
-29.04
-48.68
-68.83
-87.51
-103.20
-114.94
-122.43
-125.91
-126.02
-123.61
-119.54
-114.52
-109.04
-103.41
-97.88
-92.77
-88.53
-85.78
-85.31
-87.97
-94.41
-104.71
-117.87
-131.54
-142.24
-146.13
-140.20
-123.39
-97.05
-64.55
-30.13
2.45
30.93
54.77
74.67
91.75
106.77
119.80
130.32
137.64
141.23
141.07
137.64
131.80
124.58
116.96
109.69
103.12
97.25
91.78
86.28
80.40
73.98
67.06
59.77
52.19
44.17
35.38
25.35
13.62
-0.14
-16.06
-33.85
-52.63
-70.67
-85.45
-94.05
-94.02
-84.21
-65.52
-40.85
-14.31
10.01
29.25
42.61
51.15
57.15
62.95
70.03
78.61
87.77
95.95
101.66
103.88
102.35
97.41
89.90
80.88
71.50
62.83
55.59
50.03
45.83
42.24
38.35
33.47
27.36
20.22
12.49
4.59
-3.36
-11.63
-20.84
-31.74
-44.72
-59.45
-74.43
-87.08
-94.24
-93.04
-82.01
-61.74
-34.83
-5.16
23.35
47.89
67.28
81.88
92.84
101.35
108.13
113.33
116.78
118.34
118.11
116.46
113.87
110.75
107.33
103.70
99.84
95.75
91.49
87.18
82.98
79.02
75.35
71.95
68.76
65.70
62.71
59.78
56.79
53.53
49.56
44.58
38.75
33.16
29.99
32.12
42.23
61.85
90.60
126.28
165.50
204.89
241.93
275.39
305.06
331.16
353.76
372.52
386.79
395.87
399.28
396.94
389.15
376.53
359.92
340.33
318.75
296.19
273.49
251.36
230.26
210.44
191.88
174.35
157.48
140.95
124.53
108.22
92.11
76.33
60.96
46.00
31.40
17.10
3.07
-10.70
-24.31
-37.92
-51.75
-66.02
-80.76
-95.80
-110.75
-125.24
-139.03
-152.18
-165.11
-178.45
-192.82
-208.65
-226.04
-244.69
-263.91
-282.65
-299.73
-314.05
-324.89
-332.13
-336.03
-337.11
-335.74
-332.01
-325.81
-317.17
-306.63
-295.50
-285.81
-279.90
-279.75
-286.31
-299.00
-315.71
-333.31
-348.54
-359.03
-363.90
-363.74
-360.06
-354.22
-346.79
-337.20
-324.09
-306.02
-281.87
-251.02
-213.17
-168.14
-115.98
-57.55
4.98
67.97
126.66
176.18
212.64
233.91
239.95
232.55
214.67
189.78
160.89
129.84
96.92
61.08
20.74
-24.92
-74.93
-126.43
-175.37
-217.90
-251.61
-276.33
-294.06
-308.17
-322.13
-338.34
-357.30
-377.44
-395.72
-408.60
-413.19
-408.09
-393.60
-371.25
-343.17
-311.52
-278.28
-245.20
-213.83
-185.24
-159.76
-136.84
-115.24
-93.63
-71.11
-47.56
-23.50
0.22
23.08
45.23
67.46
90.73
115.46
141.05
165.76
187.16
203.01
212.06
214.42
211.42
205.02
196.92
188.07
178.49
167.44
153.95
137.42
118.22
98.00
79.65
66.82
62.92
70.07
88.30
115.39
147.51
180.32
210.13
234.72
253.43
266.70
275.39
280.24
281.64
279.75
274.77
267.03
257.06
245.45
232.65
219.03
204.94
190.84
177.33
164.94
154.00
144.49
136.02
128.09
120.26
112.33
104.34
96.36
88.36
79.91
70.14
57.89
42.08
22.38
-0.22
-23.17
-42.75
-55.05
-57.29
-48.75
-31.15
-8.01
16.45
38.53
55.91
67.69
74.09
75.73
73.20
66.94
57.45
45.50
32.29
19.29
7.81
-1.29
-7.87
-12.39
-15.66
-18.55
-21.75
-25.73
-30.66
-36.53
-43.07
-49.82
-56.18
-61.60
-65.78
-68.90
-71.68
-75.31
-81.05
-89.59
-100.45
-111.56
-119.56
-120.64
-111.88
-92.45
-64.09
-30.70
2.95
32.66
55.90
72.23
82.80
89.46
93.78
96.50
97.48
96.18
92.21
85.78
77.78
69.47
62.06
56.28
52.26
49.60
47.66
45.80
43.57
40.68
37.03
32.62
27.56
22.15
16.86
12.31
9.03
7.31
7.04
7.86
9.64
13.01
19.60
31.82
52.00
81.39
119.49
164.21
212.64
261.95
309.81
354.08
392.19
420.90
436.80
437.51
422.91
395.50
359.70
320.30
280.92
243.15
206.76
170.49
133.09
93.83
52.59
9.67
-34.55
-79.64
-125.10
-170.41
-215.07
-258.85
-302.15
-346.21
-392.84
-443.53
-498.21
-554.26
-606.22
-646.92
-669.43
-669.25
-645.80
-602.52
-545.77
-482.82
-420.08
-361.78
-309.74
-263.78
-222.59
-184.60
-148.62
-114.25
-81.82
-52.17
-26.23
-4.64
12.45
25.50
35.48
43.61
51.10
58.75
66.78
74.76
81.88
87.30
90.53
91.52
90.54
87.93
83.86
78.20
70.62
60.77
48.50
34.14
18.71
4.02
-7.45
-13.04
-10.67
0.34
18.89
42.20
66.66
88.88
106.64
119.25
127.29
131.88
134.06
134.39
133.02
129.91
125.15
119.12
112.39
105.63
99.40
94.08
89.77
86.32
83.40
80.59
77.48
73.76
69.32
64.23
58.69
52.98
47.29
41.70
36.03
29.89
22.73
14.00
3.45
-8.43
-20.26
-29.79
-34.41
-31.97
-21.65
-4.43
17.17
39.85
60.66
77.84
91.03
100.88
108.34
113.94
117.67
119.11
117.88
113.97
107.88
100.36
92.21
84.00
76.05
68.47
61.23
54.26
47.40
40.45
33.18
25.41
17.08
8.27
-0.84
-10.09
-19.41
-28.84
-38.62
-49.11
-60.74
-73.68
-87.50
-100.86
-111.52
-116.84
-114.72
-104.50
-87.39
-66.21
-44.38
-24.74
-8.78
3.52
13.13
21.10
27.96
33.54
37.23
38.53
37.29
33.90
29.13
23.79
18.60
14.00
10.23
7.29
5.03
3.22
1.53
-0.33
-2.61
-5.42
-8.78
-12.56
-16.68
-21.13
-26.12
-32.07
-39.56
-49.10
-60.75
-73.74
-86.24
-95.62
-99.08
-94.60
-81.73
-61.94
-38.17
-13.91
7.89
25.58
38.96
48.89
56.55
62.87
68.17
72.24
74.62
74.95
73.18
69.67
65.16
60.45
56.23
52.87
50.35
48.33
46.41
44.22
41.56
38.37
34.54
29.93
24.28
17.28
8.64
-1.82
-14.23
-28.59
-44.69
-61.84
-78.74
-93.44
-103.65
-107.35
-103.49
-92.42
-75.88
-56.46
-36.76
-18.69
-3.17
9.74
20.42
29.16
36.01
40.76
43.22
43.39
41.56
38.23
33.97
29.37
24.92
21.04
18.08
16.20
15.29
14.95
14.52
13.32
10.84
6.92
1.81
-4.02
-10.11
-16.21
-22.44
-29.18
-37.02
-46.41
-57.43
-69.51
-81.30
-90.82
-95.94
-94.99
-87.36
-73.80
-56.15
-36.81
-17.95
-1.08
13.14
24.72
33.86
40.75
45.45
47.94
48.34
46.93
44.13
40.41
36.10
31.31
26.07
20.41
14.50
8.74
3.55
-0.78
-4.36
-7.68
-11.45
-16.30
-22.45
-29.59
-37.03
-44.00
-50.01
-55.03
-59.53
-64.30
-70.21
-77.88
-87.40
-98.03
-108.11
-115.35
-117.29
-112.12
-99.34
-80.07
-56.65
-31.98
-8.56
12.05
29.36
43.57
55.06
64.04
70.42
74.07
75.01
73.61
70.54
66.58
62.40
58.37
54.55
50.77
46.84
42.70
38.51
34.58
31.24
28.61
26.46
24.27
21.34
17.11
11.40
4.50
-2.91
-10.03
-16.19
-21.16
-25.16
-28.82
-33.01
-38.57
-46.10
-55.69
-66.68
-77.59
-86.30
-90.43
-88.10
-78.55
-62.53
-42.11
-20.04
1.10
19.62
34.93
47.22
56.97
64.45
69.63
72.36
72.66
70.93
67.86
64.20
60.43
56.71
52.86
48.62
43.93
38.97
34.20
30.08
26.87
24.38
21.90
18.44
13.14
5.56
-4.04
-14.84
-25.87
-36.35
-46.00
-55.06
-64.17
-74.05
-85.39
-98.59
-113.48
-129.13
-143.61
-154.27
-158.36
-153.91
-140.48
-119.44
-93.57
-66.02
-39.47
-15.41
5.71
24.17
40.26
54.04
65.29
73.80
79.65
83.32
85.49
86.74
87.32
87.07
85.61
82.64
78.28
73.11
68.03
63.92
61.26
59.88
59.09
58.00
55.99
53.07
49.84
47.22
46.01
46.36
47.68
48.75
48.21
45.07
39.11
31.06
22.45
15.34
11.86
13.87
22.53
38.15
60.20
87.47
118.45
151.65
185.80
219.96
253.40
285.31
314.54
339.47
358.19
368.93
370.60
363.05
347.08
324.07
295.67
263.45
228.95
193.72
159.14
126.20
95.01
64.73
33.74
0.17
-37.74
-81.36
-131.37
-186.74
-243.49
-294.47
-331.02
-346.47
-339.63
-316.05
-285.99
-259.89
-244.04
-238.82
-240.50
-244.81
-249.78
-255.91
-264.00
-272.67
-277.70
-273.84
-257.73
-229.94
-194.58
-157.13
-122.05
-91.29
-64.54
-40.27
-17.02
5.95
28.66
50.91
72.73
94.68
117.84
143.67
173.56
208.41
248.06
290.90
333.82
372.52
402.52
420.29
424.26
415.35
396.50
371.69
344.64
317.89
292.54
268.56
245.50
223.01
201.06
179.75
159.04
138.57
117.73
95.87
72.58
47.82
21.86
-4.82
-31.78
-58.78
-85.89
-113.40
-141.66
-170.95
-201.25
-232.39
-264.17
-296.56
-329.59
-363.11
-396.47
-428.30
-456.78
-480.14
-497.36
-508.50
-514.58
-517.05
-517.11
-515.46
-512.43
-508.57
-505.05
-503.60
-505.71
-511.73
-520.24
-528.30
-532.43
-529.86
-519.35
-501.39
-477.58
-449.79
-419.59
-388.17
-356.47
-325.52
-296.42
-270.10
-247.05
-227.16
-209.78
-194.06
-179.24
-164.82
-150.66
-136.94
-124.00
-112.13
-101.40
-91.61
-82.35
-73.08
-63.43
-53.20
-42.52
-31.70
-21.05
-10.80
-0.94
8.78
18.72
29.24
40.51
52.46
64.78
77.04
88.84
100.06
110.79
121.39
132.31
143.84
156.02
168.63
181.29
193.64
205.51
217.02
228.49
240.46
253.61
268.66
286.16
306.07
327.41
348.10
365.34
376.38
379.45
374.37
362.58
346.54
328.86
311.54
295.58
281.12
267.75
254.87
241.88
228.29
213.75
198.16
181.68
164.67
147.58
130.70
114.15
97.75
81.06
63.49
44.53
24.17
3.22
-16.44
-32.15
-41.16
-41.58
-33.05
-16.98
4.09
27.43
51.07
74.11
96.37
117.71
137.46
154.40
167.18
175.02
178.13
177.63
175.21
172.52
170.77
170.54
171.95
174.88
179.30
185.32
193.28
203.51
216.16
231.05
247.68
265.35
283.32
300.82
316.79
329.74
337.75
338.77
331.13
314.10
288.04
254.33
214.92
172.03
127.77
83.89
41.66
1.47
-37.37
-76.74
-119.11
-166.71
-220.29
-278.22
-335.97
-386.72
-422.89
-438.51
-431.70
-405.99
-369.98
-334.86
-310.88
-303.98
-314.05
-335.39
-359.16
-376.42
-380.68
-369.05
-341.98
-302.26
-253.87
-201.12
-148.27
-99.11
-56.63
-22.76
1.93
18.28
28.20
34.13
38.34
42.50
47.56
54.02
62.39
73.49
88.42
108.23
133.46
163.87
198.61
236.62
277.02
319.07
361.68
402.83
439.33
467.37
483.67
486.76
477.58
459.09
435.03
408.48
380.93
352.28
321.62
288.13
251.72
213.06
173.08
132.53
91.60
50.04
7.43
-36.51
-81.72
-127.72
-174.04
-220.57
-267.79
-316.55
-367.40
-419.70
-471.32
-519.20
-560.47
-593.58
-618.38
-635.34
-644.29
-643.79
-631.62
-606.25
-568.25
-520.62
-467.94
-414.50
-362.86
-313.43
-265.15
-216.68
-167.31
-117.27
-67.61
-19.89
24.12
62.73
94.66
119.54
137.94
151.22
160.92
168.17
173.32
176.16
176.36
173.87
169.16
162.88
155.72
148.01
139.74
130.92
121.73
112.60
103.93
95.70
87.28
77.70
66.22
52.88
38.73
25.43
14.45
6.35
0.52
-4.37
-9.48
-14.99
-19.79
-21.98
-19.61
-11.55
2.12
20.17
40.76
62.02
82.50
101.50
119.00
135.24
150.54
164.94
178.18
189.78
199.33
206.68
212.08
216.22
220.01
224.41
230.16
237.51
245.93
253.98
259.38
259.48
251.93
235.38
209.96
177.13
139.18
98.42
56.37
13.30
-31.76
-80.29
-133.24
-189.81
-246.92
-299.67
-342.69
-371.92
-385.89
-385.93
-375.20
-357.36
-335.40
-311.40
-286.95
-263.59
-242.88
-225.93
-212.80
-202.31
-192.69
-182.57
-171.81
-161.35
-152.08
-143.67
-133.93
-119.43
-97.24
-66.58
-29.70
8.90
44.15
72.42
92.52
105.40
113.04
117.06
118.12
116.26
111.60
104.96
97.89
92.15
89.16
89.57
93.22
99.60
108.04
117.80
127.80
136.57
142.64
145.14
144.45
142.17
140.46
140.97
143.91
148.07
151.48
152.59
151.09
148.03
145.17
144.08
145.33
148.05
150.04
148.19
139.26
120.81
92.19
55.06
13.06
-29.10
-66.89
-97.07
-118.16
-130.38
-135.09
-134.22
-129.76
-123.35
-116.09
-108.48
-100.54
-92.17
-83.56
-75.52
-69.49
-67.11
-69.51
-76.55
-86.54
-96.49
-103.04
-103.65
-97.46
-85.58
-70.63
-55.73
-43.54
-35.55
-32.02
-32.25
-35.05
-39.12
-43.29
-46.64
-48.68
-49.47
-49.69
-50.54
-53.33
-58.93
-67.21
-76.82
-85.35
-90.02
-88.58
-80.12
-65.30
-46.08
-25.02
-4.37
14.41
30.83
45.06
57.54
68.59
78.21
86.18
92.11
95.67
96.75
95.51
92.41
88.10
83.24
78.39
73.87
69.67
65.56
61.09
55.84
49.49
41.91
33.25
23.81
14.02
4.27
-5.13
-14.08
-22.73
-31.51
-41.06
-51.93
-64.17
-76.98
-88.61
-96.71
-99.07
-94.44
-83.06
-66.61
-47.59
-28.48
-10.97
4.27
17.41
28.93
39.15
48.06
55.36
60.76
64.10
65.50
65.19
63.49
60.68
57.03
52.83
48.43
44.24
40.57
37.54
34.97
32.39
29.29
25.27
20.24
14.45
8.31
2.25
-3.53
-9.16
-15.07
-21.83
-29.94
-39.46
-49.76
-59.44
-66.58
-69.27
-66.24
-57.37
-43.69
-27.07
-9.55
7.22
22.28
35.29
46.26
55.25
62.29
67.34
70.44
71.72
71.44
69.88
67.30
63.91
59.90
55.49
50.98
46.71
42.93
39.69
36.78
33.76
30.18
25.73
20.44
14.56
8.46
2.37
-3.69
-9.97
-16.84
-24.69
-33.71
-43.77
-54.22
-63.85
-71.05
-74.21
-72.20
-64.80
-52.80
-37.73
-21.35
-5.19
9.79
23.09
34.54
44.04
51.48
56.81
60.03
61.33
60.97
59.23
56.40
52.73
48.49
43.92
39.30
34.86
30.83
27.36
24.45
21.95
19.53
16.74
13.18
8.62
3.08
-3.14
-9.60
-15.88
-21.69
-27.05
-32.30
-38.02
-44.83
-53.02
-62.21
-71.18
-78.02
-80.71
-77.82
-69.09
-55.61
-39.36
-22.52
-6.77
7.12
19.14
29.63
38.85
46.68
52.74
56.63
58.18
57.60
55.42
52.29
48.77
45.20
41.71
38.24
34.75
31.24
27.80
24.57
21.61
18.84
15.98
12.69
8.63
3.68
-2.01
-8.07
-14.03
-19.50
-24.35
-28.71
-32.97
-37.62
-43.14
-49.82
-57.69
-66.33
-74.78
-81.59
-85.12
-83.97
-77.51
-66.18
-51.36
-34.94
-18.64
-3.62
9.73
21.52
31.97
41.09
48.60
54.15
57.46
58.58
57.93
56.14
53.86
51.56
49.40
47.29
44.96
42.21
39.00
35.51
32.00
28.65
25.47
22.20
18.47
14.00
8.73
2.87
-3.17
-8.95
-14.19
-18.83
-23.00
-26.99
-31.13
-35.77
-41.25
-47.74
-55.10
-62.72
-69.48
-73.90
-74.54
-70.50
-61.76
-49.25
-34.55
-19.36
-5.05
7.62
18.47
27.63
35.31
41.62
46.56
50.10
52.27
53.18
53.02
52.03
50.43
48.43
46.22
43.93
41.66
39.45
37.34
35.32
33.39
31.45
29.28
26.60
23.11
18.68
13.42
7.75
2.24
-2.62
-6.60
-9.88
-12.94
-16.28
-20.21
-24.66
-29.24
-33.48
-37.03
-39.82
-42.07
-44.14
-46.44
-49.35
-53.23
-58.33
-64.63
-71.54
-77.80
-81.65
-81.33
-75.80
-65.23
-50.99
-35.23
-19.99
-6.59
4.59
13.96
22.15
29.59
36.29
41.96
46.24
48.90
49.99
49.76
48.60
46.85
44.78
42.52
40.11
37.54
34.89
32.37
30.22
28.59
27.41
26.36
24.92
22.68
19.45
15.40
10.91
6.44
2.32
-1.39
-4.83
-8.28
-11.99
-16.14
-20.75
-25.69
-30.74
-35.61
-40.06
-43.98
-47.45
-50.76
-54.35
-58.73
-64.33
-71.28
-79.25
-87.24
-93.70
-96.84
-95.18
-88.15
-76.32
-61.32
-45.18
-29.77
-16.18
-4.66
5.12
13.63
21.16
27.71
33.16
37.43
40.61
42.86
44.35
45.11
45.10
44.24
42.57
40.30
37.81
35.54
33.80
32.68
31.94
31.09
29.56
26.90
22.95
17.97
12.51
7.23
2.62
-1.19
-4.52
-7.93
-12.01
-17.03
-22.86
-29.01
-34.84
-39.85
-43.90
-47.23
-50.34
-53.86
-58.28
-63.91
-70.74
-78.32
-85.65
-91.24
-93.41
-90.75
-82.73
-69.92
-53.93
-36.78
-20.29
-5.56
7.15
18.18
27.98
36.79
44.53
50.90
55.63
58.64
60.11
60.45
60.08
59.35
58.47
57.40
56.06
54.31
52.13
49.56
46.68
43.52
40.02
36.00
31.30
25.81
19.55
12.70
5.57
-1.48
-8.11
-14.05
-19.20
-23.66
-27.75
-31.96
-36.84
-42.92
-50.43
-59.15
-68.20
-76.10
-81.10
-81.63
-76.86
-67.03
-53.41
-37.80
-22.05
-7.46
5.36
16.37
25.82
33.90
40.67
46.03
49.91
52.31
53.38
53.35
52.43
50.76
48.38
45.32
41.69
37.71
33.76
30.22
27.29
24.84
22.38
19.20
14.64
8.40
0.65
-8.02
-16.79
-24.96
-32.14
-38.41
-44.25
-50.39
-57.58
-66.35
-76.69
-87.88
-98.43
-106.29
-109.43
-106.41
-96.96
-82.03
-63.54
-43.72
-24.51
-7.12
7.97
20.75
31.47
40.36
47.59
53.33
57.70
60.74
62.39
62.54
61.11
58.19
54.13
49.50
44.95
41.03
38.04
35.92
34.30
32.56
30.04
26.23
20.92
14.30
6.88
-0.68
-7.86
-14.45
-20.70
-27.21
-34.72
-43.80
-54.44
-65.81
-76.25
-83.59
-85.76
-81.47
-70.67
-54.65
-35.56
-15.76
2.87
19.24
33.02
44.38
53.58
60.86
66.35
70.18
72.50
73.42
72.96
71.06
67.64
62.78
56.81
50.36
44.20
39.00
35.07
32.23
29.82
26.94
22.81
17.07
9.95
2.18
-5.35
-11.91
-17.22
-21.52
-25.50
-30.02
-35.87
-43.48
-52.64
-62.42
-71.19
-76.94
-77.87
-72.96
-62.35
-47.32
-29.86
-12.00
4.71
19.47
32.16
42.94
52.02
59.48
65.24
69.25
71.53
72.17
71.34
69.22
66.00
61.88
57.14
52.12
47.24
42.86
39.26
36.44
34.11
31.71
28.61
24.33
18.73
12.11
5.13
-1.52
-7.34
-12.24
-16.59
-21.09
-26.52
-33.47
-41.99
-51.41
-60.32
-66.83
-69.11
-66.00
-57.47
-44.68
-29.58
-14.21
-0.08
12.13
22.48
31.35
39.00
45.44
50.40
53.61
54.93
54.50
52.58
49.59
45.93
41.98
38.08
34.44
31.13
28.11
25.24
22.42
19.62
16.85
14.08
11.17
7.83
3.79
-1.09
-6.66
-12.48
-18.03
-22.90
-26.94
-30.33
-33.46
-36.81
-40.81
-45.86
-52.19
-59.78
-68.06
-75.82
-81.31
-82.70
-78.78
-69.45
-55.84
-39.91
-23.76
-8.91
3.99
15.05
24.68
33.20
40.59
46.63
51.08
53.89
55.25
55.42
54.67
53.18
51.06
48.44
45.57
42.74
40.23
38.20
36.55
34.99
33.14
30.72
27.62
24.00
20.11
16.16
12.21
8.14
3.72
-1.17
-6.48
-11.94
-17.19
-21.89
-25.91
-29.38
-32.68
-36.35
-40.94
-46.86
-54.08
-62.06
-69.65
-75.31
-77.52
-75.24
-68.28
-57.38
-43.96
-29.65
-15.88
-3.51
7.10
16.00
23.42
29.54
34.49
38.28
40.94
42.49
43.06
42.83
42.03
40.82
39.32
37.58
35.66
33.68
31.91
30.57
29.79
29.43
29.07
28.23
26.49
23.71
20.07
16.00
11.99
8.44
5.52
3.06
0.66
-2.18
-5.85
-10.44
-15.70
-21.17
-26.31
-30.83
-34.72
-38.29
-42.01
-46.35
-51.67
-58.09
-65.32
-72.58
-78.61
-81.95
-81.27
-75.97
-66.34
-53.56
-39.25
-25.00
-11.87
-0.39
9.38
17.61
24.50
30.21
34.84
38.47
41.10
42.72
43.31
42.96
41.84
40.24
38.41
36.51
34.64
32.81
31.10
29.63
28.46
27.55
26.67
25.48
23.65
21.00
17.63
13.82
9.97
6.41
3.34
0.72
-1.67
-4.20
-7.25
-11.02
-15.49
-20.34
-25.15
-29.48
-33.17
-36.32
-39.27
-42.47
-46.32
-51.09
-56.91
-63.64
-70.72
-77.14
-81.48
-82.27
-78.53
-70.13
-58.02
-43.84
-29.47
-16.33
-5.09
4.33
12.41
19.65
26.25
32.05
36.76
40.12
42.11
42.94
42.99
42.59
41.94
41.12
40.07
38.77
37.31
35.85
34.62
33.72
33.08
32.47
31.51
29.83
27.23
23.76
19.68
15.44
11.41
7.78
4.45
1.11
-2.64
-7.05
-12.11
-17.58
-23.08
-28.26
-32.93
-37.15
-41.09
-45.06
-49.37
-54.34
-60.26
-67.14
-74.59
-81.65
-86.87
-88.64
-85.75
-77.90
-65.86
-51.21
-35.86
-21.35
-8.54
2.41
11.81
20.07
27.44
33.99
39.61
44.16
47.56
49.78
50.83
50.80
49.83
48.12
45.94
43.62
41.48
39.79
38.69
38.12
37.77
37.16
35.74
33.14
29.28
24.45
19.21
14.21
9.88
6.31
3.15
-0.20
-4.33
-9.51
-15.60
-22.05
-28.19
-33.49
-37.83
-41.52
-45.26
-49.83
-55.91
-63.79
-73.14
-82.96
-91.64
-97.25
-98.10
-93.23
-82.82
-68.12
-51.11
-33.86
-17.98
-4.30
7.07
16.48
24.40
31.25
37.30
42.65
47.29
51.06
53.77
55.24
55.40
54.41
52.66
50.67
48.99
48.00
47.82
48.29
49.05
49.59
49.42
48.23
45.91
42.60
38.58
34.12
29.37
24.30
18.75
12.56
5.73
-1.55
-8.90
-15.91
-22.30
-28.02
-33.41
-39.09
-45.77
-53.99
-63.69
-74.02
-83.25
-89.16
-89.67
-83.65
-71.33
-54.40
-35.42
-17.03
-1.15
11.42
20.90
28.12
33.97
38.97
43.24
46.56
48.66
49.39
48.79
47.10
44.64
41.73
38.60
35.44
32.37
29.51
26.98
24.92
23.38
22.30
21.45
20.45
18.85
16.30
12.62
7.90
2.46
-3.25
-8.82
-13.96
-18.60
-22.90
-27.25
-32.16
-38.21
-45.81
-54.96
-64.98
-74.46
-81.45
-83.94
-80.56
-71.05
-56.47
-38.81
-20.44
-3.31
11.45
23.62
33.61
42.00
49.16
55.10
59.59
62.39
63.47
63.09
61.72
59.83
57.73
55.44
52.80
49.62
45.88
41.82
37.84
34.30
31.26
28.35
24.92
20.26
13.93
6.04
-2.83
-11.76
-19.89
-26.70
-32.17
-36.80
-41.40
-46.82
-53.74
-62.42
-72.47
-82.76
-91.45
-96.39
-95.70
-88.44
-75.09
-57.48
-38.30
-20.24
-5.15
6.29
14.49
20.47
25.19
29.21
32.59
35.13
36.63
37.14
36.99
36.60
36.33
36.28
36.32
36.23
35.89
35.40
35.08
35.26
36.04
37.09
37.63
36.77
33.77
28.49
21.39
13.41
5.56
-1.48
-7.54
-12.95
-18.35
-24.46
-31.84
-40.76
-50.99
-61.71
-71.46
-78.40
-80.73
-77.36
-68.37
-55.06
-39.56
-24.10
-10.34
0.99
10.00
17.20
23.13
27.98
31.64
33.85
34.50
33.74
32.02
29.92
27.95
26.39
25.29
24.55
24.12
24.08
24.67
26.07
28.21
30.63
32.51
32.92
31.22
27.23
21.41
14.58
7.68
1.38
-4.13
-9.15
-14.32
-20.35
-27.81
-36.91
-47.38
-58.32
-68.27
-75.35
-77.75
-74.26
-64.75
-50.34
-33.04
-15.17
1.38
15.57
27.27
36.88
44.92
51.68
57.14
61.14
63.55
64.45
64.00
62.45
59.97
56.63
52.48
47.65
42.40
37.16
32.37
28.32
25.04
22.19
19.23
15.56
10.82
4.98
-1.59
-8.28
-14.51
-19.91
-24.54
-28.85
-33.57
-39.44
-46.94
-56.03
-65.89
-74.96
-81.27
-82.94
-78.89
-69.26
-55.40
-39.48
-23.68
-9.56
2.22
11.84
19.82
26.63
32.42
37.08
40.42
42.40
43.20
43.11
42.46
41.43
40.05
38.31
36.28
34.18
32.37
31.17
30.70
30.74
30.72
29.97
27.92
24.43
19.77
14.56
9.44
4.84
0.82
-2.92
-6.96
-11.93
-18.35
-26.45
-35.95
-45.89
-54.65
-60.27
-61.04
-56.15
-46.03
-32.35
-17.41
-3.31
8.60
18.03
25.48
31.72
37.31
42.39
46.69
49.81
51.49
51.70
50.74
49.02
46.99
44.95
43.03
41.33
40.01
39.38
39.72
40.99
42.62
43.59
42.81
39.59
34.03
26.94
19.45
12.45
6.28
0.60
-5.22
-11.82
-19.60
-28.72
-39.17
-50.78
-63.05
-74.97
-84.97
-91.20
-92.15
-87.26
-77.18
-63.73
-49.22
-35.70
-24.40
-15.46
-8.35
-2.30
3.16
8.03
11.93
14.42
15.25
14.51
12.63
10.22
7.84
5.89
4.41
3.17
1.77
-0.20
-2.92
-6.33
-10.13
-13.97
-17.65
-21.29
-25.26
-30.09
-36.18
-43.71
-52.45
-61.88
-71.31
-80.07
-87.66
-93.90
-98.95
-103.32
-107.68
-112.47
-117.46
-121.41
-122.11
-116.85
-103.33
-80.47
-48.99
-11.35
28.82
67.62
101.79
129.17
148.97
161.51
167.86
169.46
167.77
164.03
159.18
153.75
147.95
141.71
134.75
126.76
117.53
107.12
95.95
84.82
74.71
66.51
60.72
57.29
55.60
54.76
53.92
52.68
51.21
50.15
50.24
51.99
55.41
59.99
64.87
68.95
71.22
70.94
67.97
63.01
57.56
53.68
53.24
57.23
65.30
75.78
86.36
94.90
100.33
102.93
104.14
105.93
110.10
117.70
128.86
142.87
158.49
174.28
188.88
201.24
210.72
217.13
220.82
222.65
223.88
225.71
228.79
232.78
236.26
237.13
233.44
224.10
209.24
190.17
168.75
146.71
125.30
105.09
86.25
68.69
52.19
36.34
20.58
4.27
-13.07
-31.57
-50.94
-70.65
-90.22
-109.55
-129.01
-149.34
-171.28
-195.25
-221.13
-248.40
-276.32
-304.32
-332.19
-360.09
-388.52
-418.32
-450.65
-486.74
-527.32
-571.69
-617.01
-658.20
-688.99
-703.62
-698.63
-673.87
-632.24
-578.43
-517.53
-454.04
-391.70
-333.70
-282.77
-240.76
-208.01
-182.96
-162.62
-143.70
-124.13
-103.90
-84.94
-70.05
-61.28
-58.72
-60.20
-62.07
-60.52
-53.05
-39.05
-19.83
2.27
24.95
46.69
67.06
86.40
105.23
123.72
141.46
157.69
171.80
183.82
194.53
205.15
216.78
229.78
243.66
257.39
269.98
281.10
291.36
302.04
314.73
330.81
351.23
376.36
405.80
438.04
470.32
498.79
519.33
528.74
525.76
511.48
488.82
461.41
432.32
403.39
375.27
347.90
321.11
294.92
269.38
244.40
219.58
194.39
168.45
141.85
115.03
88.59
63.02
38.38
14.37
-9.53
-33.78
-58.60
-83.87
-109.34
-134.79
-160.23
-185.94
-212.38
-239.94
-268.77
-298.66
-329.19
-359.95
-390.88
-422.55
-456.17
-493.13
-534.35
-579.58
-626.92
-672.84
-712.72
-741.76
-756.05
-753.54
-734.47
-701.31
-658.03
-609.11
-558.52
-509.00
-461.90
-417.46
-375.39
-335.18
-296.39
-258.65
-221.52
-184.58
-147.62
-110.68
-74.03
-38.00
-2.83
31.32
64.26
95.52
124.38
149.96
171.55
188.78
201.68
210.55
215.84
218.06
217.94
216.44
214.67
213.50
213.29
213.64
213.60
212.10
208.33
201.99
193.18
182.11
168.97
153.88
137.06
119.00
100.50
82.37
65.17
48.89
32.96
16.49
-1.34
-20.84
-41.49
-61.85
-79.82
-93.08
-99.67
-98.55
-89.84
-74.73
-55.14
-33.16
-10.60
11.34
32.05
51.27
68.88
84.64
98.12
108.87
116.49
120.84
122.11
120.80
117.60
113.27
108.52
103.89
99.76
96.34
93.70
91.78
90.36
89.04
87.32
84.67
80.71
75.28
68.56
61.00
53.16
45.53
38.40
31.73
25.21
18.28
10.20
0.21
-12.14
-26.63
-42.08
-56.23
-66.25
-69.46
-64.17
-50.35
-29.61
-4.65
21.56
46.63
69.15
88.70
105.46
119.80
131.91
141.72
148.94
153.24
154.44
152.63
148.17
141.64
133.68
124.81
115.37
105.57
95.48
85.22
74.89
64.56
54.22
43.71
32.83
21.48
9.81
-1.72
-12.44
-21.64
-28.80
-33.76
-36.74
-38.21
-38.74
-38.88
-39.05
-39.61
-40.98
-43.68
-48.16
-54.45
-61.78
-68.43
-72.11
-70.64
-62.76
-48.76
-30.35
-10.09
9.55
26.88
41.26
52.90
62.31
69.93
75.93
80.28
82.93
83.98
83.69
82.44
80.63
78.58
76.46
74.29
71.99
69.44
66.61
63.61
60.66
58.00
55.70
53.56
51.14
47.88
43.27
37.16
29.71
21.47
13.10
5.17
-2.02
-8.56
-14.84
-21.46
-29.04
-38.02
-48.43
-59.57
-70.06
-77.88
-80.95
-77.73
-67.80
-52.12
-32.76
-12.26
7.17
24.18
38.41
50.18
60.02
68.22
74.67
79.05
81.12
81.00
79.28
76.80
74.43
72.75
71.85
71.39
70.78
69.42
66.95
63.19
58.16
51.84
44.13
34.88
24.05
11.89
-1.05
-13.99
-26.19
-37.19
-46.98
-55.97
-64.82
-74.24
-84.83
-96.93
-110.42
-124.50
-137.57
-147.41
-151.74
-149.00
-139.04
-123.21
-103.86
-83.46
-63.73
-45.27
-27.82
-10.91
5.60
21.29
35.39
47.22
56.44
63.06
67.28
69.21
68.90
66.38
61.85
55.76
48.75
41.52
34.65
28.52
23.22
18.56
14.10
9.32
3.76
-2.81
-10.21
-17.91
-25.19
-31.43
-36.35
-40.20
-43.71
-47.87
-53.54
-60.99
-69.57
-77.72
-83.21
-83.87
-78.22
-66.04
-48.45
-27.55
-5.87
14.31
31.37
44.54
53.78
59.58
62.60
63.50
62.82
60.92
58.09
54.53
50.43
45.99
41.39
36.82
32.44
28.48
25.08
22.30
19.94
17.59
14.67
10.71
5.46
-0.98
-8.24
-15.83
-23.29
-30.34
-36.91
-43.22
-49.75
-57.10
-65.73
-75.56
-85.73
-94.51
-99.81
-99.78
-93.61
-81.81
-66.04
-48.45
-30.92
-14.56
0.36
14.06
26.82
38.64
49.16
57.84
64.17
67.90
69.04
67.85
64.80
60.49
55.58
50.77
46.65
43.62
41.76
40.83
40.30
39.60
38.24
35.98
32.88
29.18
25.24
21.36
17.73
14.38
11.07
7.38
2.64
-3.82
-12.39
-22.72
-33.60
-43.04
-48.84
-49.36
-44.14
-34.06
-21.01
-7.16
5.76
16.89
26.17
34.02
40.87
46.80
51.57
54.78
56.10
55.53
53.39
50.19
46.44
42.49
38.47
34.45
30.52
26.99
24.19
22.37
21.44
20.94
20.16
18.50
15.66
11.78
7.35
2.96
-0.99
-4.44
-7.72
-11.50
-16.53
-23.45
-32.49
-43.21
-54.44
-64.34
-70.86
-72.22
-67.62
-57.54
-43.59
-28.06
-13.12
-0.18
10.30
18.72
25.87
32.46
38.84
44.92
50.31
54.54
57.19
57.98
56.82
53.81
49.22
43.56
37.53
31.96
27.76
25.57
25.63
27.62
30.78
34.02
36.37
37.13
35.98
33.02
28.52
22.86
16.36
9.33
2.06
-5.18
-12.05
-18.37
-24.15
-29.70
-35.54
-42.16
-49.49
-56.57
-61.53
-62.10
-56.42
-43.87
-25.43
-3.33
19.82
42.04
62.49
81.18
98.19
112.67
122.48
124.66
116.60
97.18
67.14
28.74
-15.17
-61.84
-108.79
-153.07
-190.80
-217.08
-226.89
-216.63
-185.27
-134.55
-67.87
10.94
98.17
189.64
279.56
360.13
422.76
460.63
471.35
458.11
428.46
391.34
354.02
320.20
290.19
262.59
236.01
209.95
184.63
160.21
136.28
112.03
86.79
60.43
33.37
6.35
-20.18
-46.30
-72.66
-100.08
-129.18
-160.13
-192.61
-226.05
-259.93
-294.14
-329.18
-366.37
-407.48
-454.02
-506.02
-561.00
-613.75
-657.50
-686.04
-696.00
-688.12
-666.76
-637.86
-606.68
-576.16
-547.01
-518.70
-490.90
-464.08
-439.19
-416.84
-396.61
-377.14
-356.77
-334.35
-309.71
-283.69
-257.63
-232.66
-209.35
-187.47
-166.24
-144.63
-121.82
-97.46
-71.74
-45.24
-18.60
7.65
33.26
58.25
82.88
107.63
133.23
160.69
190.96
224.39
260.01
295.29
326.44
349.53
361.67
361.97
351.59
333.05
309.17
282.14
253.16
222.50
189.84
154.51
115.80
73.46
28.32
-17.18
-58.97
-92.27
-113.05
-119.34
-111.79
-93.19
-67.30
-37.55
-6.46
24.28
53.38
79.54
101.50
118.40
130.21
137.77
142.43
145.50
147.73
149.23
149.63
148.48
145.45
140.55
133.99
126.23
117.87
109.61
102.10
95.69
90.20
84.87
78.47
69.74
57.72
41.99
22.69
0.46
-23.44
-47.05
-67.66
-82.05
-87.28
-81.51
-64.71
-38.79
-7.12
26.33
57.95
85.11
106.40
121.47
130.66
134.70
134.39
130.54
123.99
115.64
106.49
97.46
89.21
82.07
76.03
70.98
66.81
63.47
60.97
59.14
57.78
56.61
55.46
54.20
52.56
49.99
45.60
38.49
28.26
15.40
1.45
-11.29
-20.36
-23.81
-20.75
-11.50
2.50
19.07
35.82
50.70
62.42
70.67
75.97
79.27
81.48
83.12
84.17
84.31
83.18
80.65
76.87
72.19
67.00
61.72
56.73
52.48
49.36
47.62
47.27
48.00
49.37
51.00
52.78
54.90
57.68
61.32
65.63
70.00
73.63
75.94
76.96
77.57
79.33
83.94
92.59
105.39
121.18
137.82
152.82
164.10
170.55
172.18
169.87
164.83
158.15
150.42
141.78
132.14
121.44
109.87
97.88
85.99
74.54
63.53
52.65
41.42
29.46
16.65
3.17
-10.54
-24.03
-36.97
-49.25
-60.93
-72.12
-82.86
-93.01
-102.41
-110.91
-118.50
-125.22
-131.04
-135.67
-138.47
-138.66
-135.65
-129.32
-120.21
-109.35
-97.95
-86.91
-76.71
-67.34
-58.67
-50.67
-43.62
-37.97
-34.10
-32.10
-31.59
-31.91
-32.37
-32.48
-32.14
-31.49
-30.79
-30.18
-29.63
-28.95
-28.01
-26.81
-25.51
-24.33
-23.45
-22.89
-22.59
-22.55
-22.99
-24.40
-27.28
-31.78
-37.39
-42.78
-46.08
-45.45
-39.76
-29.05
-14.56
1.69
17.56
31.47
42.74
51.68
59.15
66.08
73.07
80.05
86.37
91.14
93.66
93.80
92.21
90.06
88.61
88.48
89.19
89.14
86.01
77.54
62.39
40.73
14.52
-12.80
-37.07
-54.49
-62.81
-62.13
-55.18
-46.67
-41.99
-45.43
-58.66
-79.98
-104.79
-127.07
-141.45
-144.75
-136.66
-119.15
-95.21
-67.53
-37.82
-6.96
24.24
54.40
81.45
103.02
117.23
123.35
121.99
114.83
104.08
91.82
79.59
68.24
57.84
47.86
37.35
25.38
11.49
-3.92
-19.55
-33.47
-43.70
-48.83
-48.26
-42.24
-31.48
-16.97
0.18
18.66
37.09
54.28
69.76
84.13
98.78
115.27
134.38
155.65
177.51
197.93
215.15
228.00
235.86
238.38
235.41
227.11
214.26
198.24
180.68
162.79
144.99
126.79
107.37
86.24
63.72
40.90
19.03
-1.26
-20.40
-39.79
-61.15
-85.68
-113.47
-143.44
-173.99
-203.74
-232.31
-260.40
-289.44
-321.02
-356.60
-397.49
-444.63
-497.89
-554.98
-610.67
-657.17
-686.13
-691.45
-671.50
-629.55
-572.02
-505.73
-435.85
-365.64
-297.77
-235.93
-185.13
-150.06
-132.68
-130.49
-136.92
-143.63
-143.73
-133.89
-114.76
-89.78
-62.90
-36.86
-12.48
10.88
34.32
58.35
82.35
104.66
123.07
135.68
141.51
140.83
135.09
126.66
118.23
112.39
111.21
116.08
127.61
145.60
169.03
196.23
225.10
253.35
278.92
300.19
316.30
327.20
333.52
336.12
335.59
331.93
324.56
312.75
296.08
274.80
249.75
222.07
192.91
163.29
134.32
107.25
83.44
63.95
49.00
37.79
28.74
20.20
11.18
1.69
-7.51
-15.42
-21.29
-24.87
-26.22
-25.52
-22.89
-18.46
-12.62
-6.14
-0.11
4.38
6.60
6.37
4.04
0.30
-4.15
-8.72
-13.00
-16.75
-19.83
-22.17
-23.69
-24.34
-24.11
-23.04
-21.24
-18.92
-16.23
-13.16
-9.44
-4.71
1.32
8.53
16.42
24.15
30.81
35.81
39.09
41.15
43.03
46.01
51.33
59.83
71.67
86.22
102.26
118.21
132.53
144.01
151.84
155.55
154.88
149.69
139.99
126.04
108.45
88.19
66.40
44.08
21.78
-0.56
-23.40
-47.13
-71.57
-95.68
-117.81
-136.20
-149.79
-158.56
-163.52
-166.14
-167.76
-169.02
-169.83
-169.67
-168.11
-165.09
-161.02
-156.52
-152.08
-147.77
-143.20
-137.83
-131.28
-123.69
-115.73
-108.37
-102.59
-99.17
-98.64
-101.38
-107.67
-117.45
-130.04
-143.77
-156.08
-164.17
-165.80
-160.21
-148.19
-131.61
-112.26
-90.85
-66.81
-39.00
-6.96
28.10
63.42
95.80
123.06
144.74
161.68
174.60
182.82
184.00
175.16
154.39
121.99
80.54
33.82
-14.66
-62.56
-108.60
-151.82
-190.69
-222.99
-246.31
-259.15
-261.68
-255.93
-245.12
-232.44
-219.90
-207.82
-195.26
-181.07
-164.83
-147.25
-129.66
-113.03
-97.29
-81.37
-64.08
-45.19
-25.98
-9.04
2.80
7.54
4.81
-4.21
-17.32
-32.09
-46.35
-58.36
-66.71
-70.14
-67.54
-58.30
-42.67
-21.99
1.66
26.15
49.95
72.02
91.39
106.74
116.63
120.48
119.55
117.12
117.17
122.26
131.51
140.17
141.15
127.53
94.76
41.75
-29.35
-113.78
-204.60
-293.20
-370.34
-427.97
-461.56
-471.54
-462.97
-443.47
-420.44
-398.88
-380.75
-365.80
-352.93
-341.18
-329.82
-318.05
-304.77
-288.81
-269.52
-247.12
-222.67
-197.53
-172.64
-148.04
-122.86
-95.90
-66.25
-33.94
0.02
33.99
66.46
96.67
124.98
152.54
180.67
210.08
240.51
270.79
299.39
325.16
347.86
368.29
388.07
409.13
433.16
460.87
491.36
521.66
547.10
562.43
563.39
548.12
517.41
473.96
420.78
359.84
291.43
214.72
128.97
34.98
-64.02
-162.25
-252.29
-326.63
-379.67
-409.17
-416.83
-407.62
-387.89
-363.38
-337.94
-313.36
-290.26
-269.03
-250.33
-234.76
-222.20
-211.46
-200.61
-187.82
-172.31
-154.72
-136.82
-120.67
-107.64
-97.77
-89.76
-81.58
-71.26
-57.77
-41.34
-23.29
-5.28
11.52
27.03
42.43
59.66
80.64
106.43
136.77
170.19
204.55
237.87
269.08
298.30
326.87
356.98
391.08
431.02
477.17
527.56
577.70
621.27
651.59
663.51
654.76
626.43
582.30
527.43
466.71
403.89
340.93
277.86
213.21
145.27
73.75
1.38
-65.63
-118.81
-150.11
-154.53
-131.49
-84.47
-19.79
54.73
130.37
197.70
247.44
272.22
268.71
239.12
190.49
132.03
71.67
13.42
-43.27
-102.24
-168.14
-243.53
-326.72
-411.27
-487.18
-543.83
-573.42
-573.61
-548.10
-504.67
-452.17
-397.83
-346.22
-299.86
-260.39
-229.16
-206.70
-191.76
-181.08
-170.33
-156.04
-137.15
-115.32
-93.64
-74.97
-60.27
-48.32
-36.49
-22.21
-4.16
17.28
40.49
63.59
85.47
106.32
127.56
151.11
178.55
210.42
246.00
283.65
321.51
358.07
392.35
423.52
450.38
470.97
482.97
484.55
475.31
456.87
432.52
406.35
382.16
362.86
350.39
345.87
349.58
360.54
376.18
392.32
404.11
407.44
400.29
383.24
358.83
330.25
299.94
268.89
236.84
203.07
167.13
129.30
90.36
51.20
12.43
-25.81
-63.71
-101.53
-139.51
-177.90
-217.14
-257.67
-299.51
-341.49
-380.82
-413.38
-434.89
-442.43
-435.63
-416.81
-389.92
-359.04
-327.07
-295.35
-264.14
-233.53
-204.02
-176.60
-152.26
-131.59
-114.56
-100.73
-89.68
-81.25
-75.48
-72.39
-71.47
-71.50
-70.62
-66.86
-58.83
-46.38
-30.70
-13.99
1.37
13.57
21.85
26.41
28.03
27.55
25.58
22.49
18.56
14.16
9.73
5.63
1.98
-1.43
-5.06
-9.41
-14.87
-21.62
-29.69
-39.04
-49.60
-61.25
-73.85
-87.17
-100.98
-115.12
-129.50
-144.09
-158.84
-173.58
-187.84
-200.63
-210.35
-214.79
-211.67
-199.22
-176.93
-145.90
-108.77
-69.16
-30.86
2.81
29.54
48.17
58.80
62.75
62.32
60.34
59.43
61.23
66.16
73.71
83.18
94.42
108.02
125.07
146.48
172.43
202.12
233.85
265.17
292.91
313.45
323.36
320.54
305.66
282.80
258.74
240.84
234.27
239.94
254.21
270.47
281.93
283.93
275.03
256.55
231.15
201.48
169.51
136.65
104.08
72.86
43.76
16.61
-10.04
-38.71
-72.02
-111.13
-154.41
-197.16
-232.75
-254.85
-259.92
-248.64
-225.65
-197.75
-171.32
-150.33
-135.85
-126.87
-121.98
-120.73
-123.98
-133.35
-150.15
-174.49
-204.95
-238.73
-272.19
-301.39
-322.79
-333.83
-333.41
-322.08
-301.65
-274.52
-242.81
-207.87
-170.32
-130.74
-90.24
-50.72
-14.35
17.37
44.25
67.40
88.35
107.94
125.67
139.95
149.09
152.37
150.53
145.42
139.02
132.50
125.86
118.28
108.98
97.90
85.91
74.48
65.01
58.19
53.85
51.19
49.40
48.16
47.85
49.22
52.86
58.56
65.14
70.73
73.24
70.89
62.53
47.59
26.06
-1.43
-33.36
-67.25
-99.85
-127.86
-148.82
-161.84
-167.70
-168.39
-166.20
-162.89
-159.28
-155.16
-149.65
-141.57
-129.82
-113.73
-93.25
-69.05
-42.46
-15.23
10.90
34.55
54.80
71.23
83.69
92.24
97.00
98.28
96.53
92.46
86.87
80.50
73.86
67.15
60.29
53.06
45.34
37.24
29.13
21.46
14.51
8.24
2.23
-4.11
-11.27
-19.48
-28.64
-38.45
-48.47
-58.21
-66.96
-73.85
-77.98
-78.75
-76.23
-71.34
-65.62
-60.74
-57.98
-57.95
-60.73
-66.13
-74.09
-84.66
-97.81
-113.11
-129.57
-145.72
-160.04
-171.35
-179.17
-183.66
-185.46
-185.35
-184.02
-181.99
-179.63
-177.24
-175.10
-173.41
-172.24
-171.48
-170.82
-169.79
-167.91
-164.70
-159.72
-152.62
-143.17
-131.18
-116.56
-99.36
-79.73
-57.99
-34.69
-10.68
12.91
34.85
54.03
69.64
81.34
89.24
93.78
95.59
95.34
93.71
91.32
88.70
86.13
83.59
80.74
77.03
71.94
65.21
56.93
47.44
37.07
25.79
13.15
-1.60
-18.96
-38.70
-59.51
-79.15
-95.05
-105.14
-108.55
-105.90
-99.24
-91.61
-86.54
-87.37
-96.48
-114.65
-140.51
-170.67
-200.38
-224.84
-240.59
-246.35
-243.11
-233.40
-220.18
-205.94
-192.26
-179.78
-168.56
-158.31
-148.51
-138.54
-127.74
-115.53
-101.68
-86.37
-70.13
-53.62
-37.31
-21.31
-5.41
